Local: ,2025-06-12 00:00:00+02:00,tz_sec ,7200
Linux Epoch (ms):,1749679200000.0
PPG Timestamp,PPG,ADXL Timestamp,X,Y,Z
1749722463670.813,259866,1749722463651.875,-4,75,-159
1749722463690.656,259985,1749722463671.75,-4,74,-159
1749722463710.531,260103,1749722463691.625,-2,71,-154
1749722463730.406,260114,1749722463711.438,-8,74,-161
1749722463750.219,259849,1749722463731.313,-7,76,-161
1749722463770.094,259371,1749722463751.156,-9,72,-154
1749722463789.937,258748,1749722463771.0,-16,78,-161
1749722463809.813,258218,1749722463790.844,-5,72,-159
1749722463829.656,257666,1749722463810.719,0,73,-156
1749722463849.5,257150,1749722463830.594,1,75,-153
1749722463869.344,256874,1749722463850.406,-17,79,-158
1749722463889.187,256636,1749722463870.25,0,76,-163
1749722463909.125,256474,1749722463890.094,1,78,-157
1749722463928.844,256399,1749722463909.938,-11,67,-153
1749722463948.719,256361,1749722463929.75,-8,78,-164
1749722463968.594,256350,1749722463949.656,-4,73,-162
1749722463988.375,256390,1749722463969.5,-8,76,-160
1749722464008.25,256398,1749722463989.344,-9,76,-161
1749722464028.094,256427,1749722464009.187,-4,67,-157
1749722464047.969,256393,1749722464029.0,-16,70,-157
1749722464067.812,256354,1749722464048.906,-5,72,-161
1749722464087.656,256250,1749722464068.719,-1,74,-160
1749722464107.531,256155,1749722464088.563,-4,72,-160
1749722464127.437,256074,1749722464108.437,-1,72,-164
1749722464147.219,255993,1749722464128.344,-4,74,-160
1749722464167.062,255924,1749722464148.125,-10,78,-160
1749722464186.938,255877,1749722464167.969,-13,73,-161
1749722464206.813,255911,1749722464187.875,14,72,-161
1749722464226.625,255937,1749722464207.75,3,72,-162
1749722464246.469,255923,1749722464227.562,-12,72,-160
1749722464266.375,256019,1749722464247.406,-8,63,-162
1749722464286.219,256052,1749722464267.281,-8,76,-162
1749722464306.031,256187,1749722464287.125,-7,71,-164
1749722464325.906,256283,1749722464306.969,-4,72,-177
1749722464345.75,256332,1749722464326.844,-1,72,-161
1749722464365.594,256540,1749722464346.688,-12,78,-152
1749722464385.469,256670,1749722464366.531,-4,75,-157
1749722464405.312,256775,1749722464386.375,-9,70,-160
1749722464425.156,256885,1749722464406.25,-13,73,-161
1749722464445.031,257005,1749722464426.094,14,67,-164
1749722464464.875,257099,1749722464445.938,1,75,-157
1749722464484.719,257199,1749722464465.812,-2,71,-153
1749722464504.594,257308,1749722464485.625,-9,68,-160
1749722464524.437,257401,1749722464505.5,-2,76,-159
1749722464544.25,257527,1749722464525.313,-1,71,-159
1749722464564.125,257633,1749722464545.219,-1,67,-160
1749722464584.0,257744,1749722464565.062,0,72,-160
1749722464603.844,257917,1749722464584.906,-13,63,-166
1749722464623.688,258056,1749722464604.75,-4,72,-164
1749722464643.563,258212,1749722464624.656,1,73,-164
1749722464663.437,258316,1749722464644.5,-12,64,-161
1749722464683.281,258499,1749722464664.3118,-8,75,-160
1749722464703.125,258632,1749722464684.219,-15,72,-156
1749722464722.969,258793,1749722464704.031,3,72,-160
1749722464742.844,258942,1749722464723.937,-7,72,-166
1749722464762.719,259144,1749722464743.781,-11,71,-169
1749722464782.531,259308,1749722464763.656,-1,75,-162
1749722464802.406,259453,1749722464783.5,-7,72,-163
1749722464822.25,259722,1749722464803.313,-8,72,-157
1749722464842.125,259878,1749722464823.156,-8,70,-157
1749722464862.0,259767,1749722464843.031,-24,70,-159
1749722464881.813,259464,1749722464862.906,-12,75,-160
1749722464901.688,259019,1749722464882.781,-13,71,-152
1749722464921.562,258538,1749722464902.594,-4,68,-159
1749722464941.406,258078,1749722464922.469,-2,78,-160
1749722464961.219,257686,1749722464942.313,-9,71,-158
1749722464981.125,257424,1749722464962.188,-2,72,-165
1749722465000.938,257264,1749722464982.0,3,63,-160
1749722465020.812,257152,1749722465001.906,-8,70,-162
1749722465040.625,257103,1749722465021.75,0,67,-159
1749722465060.5,257103,1749722465041.594,1,71,-161
1749722465080.406,257129,1749722465061.438,-8,73,-161
1749722465100.25,257210,1749722465081.312,-4,72,-161
1749722465120.062,257288,1749722465101.219,-8,69,-161
1749722465139.937,257369,1749722465121.0,-13,71,-153
1749722465159.781,257400,1749722465140.844,-10,73,-161
1749722465179.625,257411,1749722465160.687,-2,71,-160
1749722465199.469,257373,1749722465180.562,-2,70,-162
1749722465219.312,257306,1749722465200.438,-12,73,-160
1749722465239.188,257209,1749722465220.25,-16,71,-160
1749722465259.063,257143,1749722465240.094,-9,71,-157
1749722465278.875,257116,1749722465260.0,-8,76,-161
1749722465298.75,257112,1749722465279.844,-4,73,-162
1749722465318.594,257125,1749722465299.688,-1,71,-164
1749722465338.469,257163,1749722465319.5,-16,69,-169
1749722465358.313,257221,1749722465339.375,-10,70,-160
1749722465378.156,257281,1749722465359.25,-12,70,-164
1749722465398.031,257370,1749722465379.062,-2,71,-157
1749722465417.906,257462,1749722465398.969,-3,72,-161
1749722465437.719,257571,1749722465418.813,-7,67,-160
1749722465457.594,257690,1749722465438.656,-15,71,-160
1749722465477.437,257790,1749722465458.531,-7,70,-167
1749722465497.313,257910,1749722465478.344,-4,71,-164
1749722465517.156,258015,1749722465498.219,-15,68,-153
1749722465537.0,258050,1749722465518.094,-4,71,-160
1749722465556.875,258234,1749722465537.906,7,75,-160
1749722465576.75,258340,1749722465557.781,-4,64,-169
1749722465596.563,258423,1749722465577.656,1,70,-160
1749722465616.438,258597,1749722465597.531,-13,73,-160
1749722465636.312,258743,1749722465617.375,-8,70,-162
1749722465656.156,258873,1749722465637.219,-2,67,-161
1749722465676.0,259011,1749722465657.063,-2,64,-165
1749722465695.875,259172,1749722465676.969,-12,67,-165
1749722465715.75,259302,1749722465696.781,-2,65,-161
1749722465735.625,259411,1749722465716.687,1,67,-160
1749722465755.469,259541,1749722465736.5,-12,70,-159
1749722465775.313,259694,1749722465756.406,-10,71,-157
1749722465795.187,259817,1749722465776.219,-13,72,-160
1749722465815.031,259926,1749722465796.125,-4,70,-166
1749722465834.875,260076,1749722465815.969,-2,71,-166
1749722465854.75,260162,1749722465835.813,-5,67,-162
1749722465874.625,260261,1749722465855.656,-10,67,-162
1749722465894.469,260378,1749722465875.531,1,68,-160
1749722465914.3118,260493,1749722465895.375,-4,68,-160
1749722465934.188,260580,1749722465915.25,-8,68,-154
1749722465954.063,260708,1749722465935.0942,-1,65,-154
1749722465973.937,260850,1749722465955.0,-9,68,-160
1749722465993.781,260918,1749722465974.875,6,70,-166
1749722466013.656,260858,1749722465994.719,0,79,-160
1749722466033.531,260453,1749722466014.563,-5,63,-158
1749722466053.406,260121,1749722466034.469,-1,67,-161
1749722466073.219,259655,1749722466054.312,0,63,-151
1749722466093.094,259230,1749722466074.156,0,63,-161
1749722466112.969,258850,1749722466094.0,3,65,-160
1749722466132.812,258562,1749722466113.906,3,64,-162
1749722466152.687,258366,1749722466133.781,-4,64,-163
1749722466172.563,258207,1749722466153.625,-10,67,-160
1749722466192.406,258142,1749722466173.5,-9,64,-160
1749722466212.281,258122,1749722466193.3442,-13,67,-162
1749722466232.156,258116,1749722466213.25,3,64,-161
1749722466252.031,258162,1749722466233.063,-17,65,-154
1749722466271.906,258231,1749722466252.969,-16,67,-161
1749722466291.75,258307,1749722466272.844,-10,70,-165
1749722466311.594,258373,1749722466292.687,-2,67,-166
1749722466331.469,258378,1749722466312.5,-7,64,-169
1749722466351.3132,258357,1749722466332.375,-17,62,-169
1749722466371.188,258300,1749722466352.188,3,67,-160
1749722466391.156,258241,1749722466372.125,-8,67,-157
1749722466410.937,258202,1749722466391.969,-5,65,-162
1749722466430.781,258160,1749722466411.844,-1,64,-165
1749722466450.625,258127,1749722466431.688,1,63,-160
1749722466470.469,258120,1749722466451.562,-9,64,-159
1749722466490.344,258169,1749722466471.375,-10,69,-162
1749722466510.187,258204,1749722466491.25,1,65,-158
1749722466530.031,258295,1749722466511.125,-10,67,-169
1749722466549.906,258384,1749722466530.969,-2,71,-167
1749722466569.75,258484,1749722466550.844,-2,68,-166
1749722466589.656,258586,1749722466570.656,-1,67,-160
1749722466609.5,258684,1749722466590.531,-7,67,-160
1749722466629.344,258808,1749722466610.437,-2,67,-161
1749722466649.219,258926,1749722466630.25,-12,79,-159
1749722466669.094,259026,1749722466650.125,-1,66,-157
1749722466688.906,259141,1749722466670.0,19,67,-160
1749722466708.781,259265,1749722466689.844,-8,64,-164
1749722466728.625,259348,1749722466709.687,-12,67,-161
1749722466748.5,259491,1749722466729.531,0,69,-162
1749722466768.312,259591,1749722466749.406,-1,64,-157
1749722466788.156,259697,1749722466769.313,4,64,-164
1749722466808.031,259808,1749722466789.094,1,64,-173
1749722466827.875,259908,1749722466808.969,-5,67,-165
1749722466847.687,260027,1749722466828.813,1,71,-164
1749722466867.563,260147,1749722466848.625,-1,70,-160
1749722466887.438,260262,1749722466868.469,-5,67,-160
1749722466907.281,260401,1749722466888.344,-10,65,-166
1749722466927.125,260545,1749722466908.281,3,64,-161
1749722466947.0,260674,1749722466928.094,-6,66,-156
1749722466966.813,260838,1749722466947.906,-4,67,-160
1749722466986.688,260957,1749722466967.75,-9,76,-162
1749722467006.625,260922,1749722466987.625,-4,63,-164
1749722467026.375,260680,1749722467007.531,-8,66,-160
1749722467046.25,260321,1749722467027.344,-1,69,-160
1749722467066.094,259890,1749722467047.156,-8,65,-162
1749722467085.938,259507,1749722467067.0,1,87,-164
1749722467105.781,259169,1749722467086.844,-1,66,-160
1749722467125.625,258889,1749722467106.688,0,68,-157
1749722467145.5,258713,1749722467126.563,-1,64,-165
1749722467165.344,258615,1749722467146.406,-1,67,-162
1749722467185.187,258560,1749722467166.281,1,66,-164
1749722467205.062,258572,1749722467186.125,-7,64,-160
1749722467224.906,258602,1749722467205.969,-8,63,-157
1749722467244.75,258655,1749722467225.781,1,64,-159
1749722467264.594,258736,1749722467245.687,2,68,-162
1749722467284.531,258798,1749722467265.531,-13,67,-158
1749722467304.312,258901,1749722467285.375,-8,71,-144
1749722467324.156,258931,1749722467305.188,-8,67,-160
1749722467344.031,258849,1749722467325.094,-13,68,-162
1749722467363.844,258845,1749722467344.969,-1,72,-160
1749722467383.719,258812,1749722467364.781,-1,63,-160
1749722467403.594,258715,1749722467384.625,3,64,-165
1749722467423.406,258681,1749722467404.5,-13,88,-162
1749722467443.281,258665,1749722467424.375,-15,68,-162
1749722467463.219,258655,1749722467444.219,-8,65,-162
1749722467483.0,258693,1749722467464.063,2,63,-144
1749722467502.844,258706,1749722467483.969,-15,68,-161
1749722467522.688,258801,1749722467503.781,-9,56,-159
1749722467542.562,258874,1749722467523.594,-5,71,-177
1749722467562.437,258997,1749722467543.5,-9,67,-166
1749722467582.313,259104,1749722467563.344,-1,68,-162
1749722467602.125,259218,1749722467583.219,-1,64,-160
1749722467621.969,259346,1749722467603.062,-10,67,-164
1749722467641.844,259465,1749722467622.875,0,70,-164
1749722467661.688,259572,1749722467642.781,-12,68,-161
1749722467681.531,259619,1749722467662.594,3,67,-160
1749722467701.437,259774,1749722467682.437,-1,65,-160
1749722467721.25,259852,1749722467702.312,-7,63,-160
1749722467741.062,259920,1749722467722.125,-7,70,-169
1749722467760.969,259974,1749722467742.0,-2,75,-164
1749722467780.813,260009,1749722467761.875,-15,67,-161
1749722467800.656,260006,1749722467781.719,-1,63,-165
1749722467820.469,260027,1749722467801.594,-13,75,-162
1749722467840.344,260090,1749722467821.438,-2,64,-165
1749722467860.188,260478,1749722467841.25,3,62,-159
1749722467880.063,260469,1749722467861.125,15,78,-153
1749722467899.875,260399,1749722467880.969,-16,99,-150
1749722467919.75,260491,1749722467900.812,7,12,-173
1749722467939.594,260506,1749722467920.688,7,72,-160
1749722467959.469,260419,1749722467940.5,-7,71,-162
1749722467979.25,260217,1749722467960.344,4,70,-160
1749722467999.125,259974,1749722467980.187,-14,73,-160
1749722468019.0,259724,1749722468000.031,-18,56,-169
1749722468038.875,259363,1749722468019.906,-8,68,-159
1749722468058.688,258938,1749722468039.75,-8,67,-160
1749722468078.531,258456,1749722468059.625,-5,67,-161
1749722468098.406,257928,1749722468079.437,-1,67,-160
1749722468118.25,257542,1749722468099.313,-10,51,-161
1749722468138.063,257152,1749722468119.1558,6,71,-177
1749722468157.938,256938,1749722468139.0,15,61,-169
1749722468177.781,256889,1749722468158.875,7,75,-161
1749722468197.656,256951,1749722468178.719,-4,67,-162
1749722468217.469,257053,1749722468198.563,-10,64,-169
1749722468237.344,257111,1749722468218.406,0,65,-160
1749722468257.187,257112,1749722468238.281,-5,61,-162
1749722468277.031,257054,1749722468258.125,7,63,-173
1749722468296.875,256924,1749722468277.938,-1,60,-164
1749722468316.688,256795,1749722468297.781,-1,59,-162
1749722468336.563,256603,1749722468317.656,4,57,-164
1749722468356.406,256442,1749722468337.469,-4,63,-165
1749722468376.281,256284,1749722468357.312,4,60,-160
1749722468396.125,256135,1749722468377.188,7,60,-173
1749722468415.969,255977,1749722468397.063,-4,63,-162
1749722468435.812,255885,1749722468416.875,-1,66,-168
1749722468455.687,255779,1749722468436.719,6,65,-169
1749722468475.5,255714,1749722468456.594,3,63,-169
1749722468495.375,255703,1749722468476.469,6,63,-157
1749722468515.25,255686,1749722468496.281,8,63,-165
1749722468535.062,255691,1749722468516.125,6,62,-160
1749722468554.906,255697,1749722468536.0,-3,67,-169
1749722468574.781,255690,1749722468555.875,-1,63,-162
1749722468594.625,255686,1749722468575.688,7,63,-160
1749722468614.469,255655,1749722468595.562,0,65,-162
1749722468634.312,255604,1749722468615.375,-4,70,-164
1749722468654.187,255544,1749722468635.25,2,67,-160
1749722468674.063,255482,1749722468655.094,-13,64,-164
1749722468693.938,255431,1749722468674.969,6,67,-162
1749722468713.75,255425,1749722468694.875,0,66,-164
1749722468733.656,255365,1749722468714.688,4,64,-164
1749722468753.531,255332,1749722468734.594,4,65,-168
1749722468773.375,255358,1749722468754.437,3,60,-162
1749722468793.219,255298,1749722468774.281,-8,67,-158
1749722468813.219,255074,1749722468794.188,-9,67,-161
1749722468832.938,254715,1749722468814.0,6,64,-169
1749722468852.813,254272,1749722468833.844,7,67,-160
1749722468872.625,253817,1749722468853.719,-2,64,-162
1749722468892.5,253325,1749722468873.562,-1,63,-152
1749722468912.375,252896,1749722468893.438,-6,65,-162
1749722468932.25,252515,1749722468913.281,8,67,-160
1749722468952.094,252211,1749722468933.156,8,67,-166
1749722468971.969,251992,1749722468953.031,6,67,-167
1749722468991.812,251815,1749722468972.875,8,68,-168
1749722469011.688,251661,1749722468992.719,-8,67,-161
1749722469031.5,251542,1749722469012.594,8,65,-167
1749722469051.375,251555,1749722469032.469,7,68,-162
1749722469071.25,251523,1749722469052.281,3,67,-162
1749722469091.094,251445,1749722469072.125,-5,65,-160
1749722469110.938,251410,1749722469092.0,-9,63,-175
1749722469130.781,251297,1749722469111.875,6,67,-160
1749722469150.656,251107,1749722469131.687,-4,64,-162
1749722469170.5,250938,1749722469151.563,-13,63,-169
1749722469190.344,250733,1749722469171.375,-1,67,-160
1749722469210.188,250491,1749722469191.281,1,63,-160
1749722469230.031,250325,1749722469211.125,2,64,-161
1749722469249.906,250167,1749722469230.969,3,65,-162
1749722469269.719,250037,1749722469250.844,-6,64,-168
1749722469289.594,249954,1749722469270.656,-7,64,-164
1749722469309.438,249887,1749722469290.5,3,63,-161
1749722469329.312,249841,1749722469310.375,3,62,-168
1749722469349.156,249827,1749722469330.219,7,65,-162
1749722469369.031,249794,1749722469350.094,4,65,-164
1749722469388.875,249768,1749722469369.937,3,63,-162
1749722469408.75,249754,1749722469389.781,9,71,-160
1749722469428.594,249713,1749722469409.688,3,62,-161
1749722469448.438,249681,1749722469429.5,23,60,-160
1749722469468.281,249649,1749722469449.344,-4,62,-160
1749722469488.156,249569,1749722469469.219,-4,60,-161
1749722469508.0,249569,1749722469489.062,3,75,-169
1749722469527.875,249534,1749722469508.938,4,69,-160
1749722469547.719,249526,1749722469528.781,-4,65,-160
1749722469567.563,249495,1749722469548.594,7,55,-161
1749722469587.437,249474,1749722469568.469,7,63,-161
1749722469607.25,249319,1749722469588.375,7,65,-162
1749722469627.125,248945,1749722469608.188,-7,65,-169
1749722469647.0,248445,1749722469628.0,1,63,-160
1749722469666.812,247917,1749722469647.906,-1,63,-164
1749722469686.687,247441,1749722469667.75,8,63,-177
1749722469706.531,246909,1749722469687.594,3,65,-165
1749722469726.375,246604,1749722469707.438,10,63,-160
1749722469746.219,246367,1749722469727.312,-4,62,-162
1749722469766.094,246144,1749722469747.187,7,65,-164
1749722469785.937,245989,1749722469767.0,12,62,-162
1749722469805.813,245851,1749722469786.875,-4,63,-159
1749722469825.625,245552,1749722469806.75,7,62,-166
1749722469845.5,244932,1749722469826.594,-2,92,-168
1749722469865.344,247192,1749722469846.375,24,243,-233
1749722469885.219,248484,1749722469866.219,6,478,-369
1749722469905.031,249679,1749722469886.125,-796,367,-271
1749722469924.906,250158,1749722469906.031,-853,8,-306
1749722469944.75,250526,1749722469925.781,-346,-45,-368
1749722469964.594,250200,1749722469945.688,134,7,-189
1749722469984.438,250009,1749722469965.531,402,-157,-33
1749722470004.281,249191,1749722469985.406,335,-104,156
1749722470024.156,249218,1749722470005.219,387,15,199
1749722470044.031,249738,1749722470025.062,236,76,142
1749722470063.844,251958,1749722470044.969,-8,31,134
1749722470083.719,254196,1749722470064.781,-128,-74,103
1749722470103.594,256466,1749722470084.625,-186,-135,87
1749722470123.469,257739,1749722470104.5,-192,-90,64
1749722470143.281,258601,1749722470124.312,-146,-45,24
1749722470163.125,259573,1749722470144.219,-144,-38,-26
1749722470182.969,260290,1749722470164.062,-149,-60,-18
1749722470202.844,260640,1749722470183.875,-167,-76,-25
1749722470222.656,260962,1749722470203.75,-193,-64,-52
1749722470242.5,261226,1749722470223.563,-177,-37,-48
1749722470262.406,261363,1749722470243.469,-136,-44,-49
1749722470282.219,261543,1749722470263.312,-97,-57,-26
1749722470302.062,261731,1749722470283.156,-100,-55,-49
1749722470321.937,262051,1749722470303.031,-136,-38,-62
1749722470341.813,262470,1749722470322.875,-148,-18,-97
1749722470361.656,262936,1749722470342.75,-93,-13,-113
1749722470381.5,263372,1749722470362.531,-39,-13,-93
1749722470401.344,263757,1749722470382.469,-64,-10,-100
1749722470421.187,264119,1749722470402.313,-79,0,-127
1749722470441.063,264429,1749722470422.125,-104,-4,-148
1749722470460.938,264653,1749722470441.969,-144,-25,-170
1749722470480.75,264735,1749722470461.875,-180,-24,-169
1749722470500.625,264847,1749722470481.688,-200,-4,-157
1749722470520.5,264700,1749722470501.563,-160,4,-153
1749722470540.344,263760,1749722470521.406,-66,3,-122
1749722470560.187,262797,1749722470541.25,-1,11,-113
1749722470580.062,261880,1749722470561.156,43,40,-120
1749722470599.906,261076,1749722470580.969,41,38,-141
1749722470619.75,260498,1749722470600.813,30,41,-164
1749722470639.594,260048,1749722470620.687,17,47,-186
1749722470659.469,259584,1749722470640.531,-1,60,-209
1749722470679.312,259222,1749722470660.375,72,60,-216
1749722470699.188,258927,1749722470680.344,76,56,-201
1749722470719.031,258707,1749722470700.063,63,48,-185
1749722470738.844,258496,1749722470719.969,39,40,-169
1749722470758.719,258293,1749722470739.781,7,35,-158
1749722470778.594,258021,1749722470759.656,-2,34,-167
1749722470798.406,257903,1749722470779.5,-7,32,-173
1749722470818.281,257684,1749722470799.344,16,35,-166
1749722470838.125,257435,1749722470819.219,31,26,-177
1749722470858.0,257321,1749722470839.031,17,32,-179
1749722470877.813,257150,1749722470858.906,24,31,-185
1749722470897.688,256972,1749722470878.781,16,35,-184
1749722470917.531,256811,1749722470898.562,14,48,-185
1749722470937.406,256633,1749722470918.469,16,31,-169
1749722470957.25,256611,1749722470938.313,16,46,-160
1749722470977.094,256528,1749722470958.188,25,33,-160
1749722470996.969,256446,1749722470978.031,24,38,-168
1749722471016.844,256384,1749722470997.875,18,33,-169
1749722471036.656,256326,1749722471017.781,19,27,-167
1749722471056.531,256228,1749722471037.594,24,27,-170
1749722471076.406,256177,1749722471057.469,28,31,-173
1749722471096.281,256110,1749722471077.312,26,31,-168
1749722471116.125,255999,1749722471097.188,22,30,-165
1749722471135.969,255920,1749722471117.094,24,32,-160
1749722471155.813,255853,1749722471136.875,28,36,-160
1749722471175.687,255763,1749722471156.719,22,36,-165
1749722471195.5,255695,1749722471176.594,29,35,-164
1749722471215.375,255621,1749722471196.469,24,33,-168
1749722471235.25,255549,1749722471216.313,25,30,-168
1749722471255.094,255546,1749722471236.156,16,14,-189
1749722471274.937,255444,1749722471256.0,26,30,-177
1749722471294.781,255431,1749722471275.875,25,28,-185
1749722471314.656,255139,1749722471295.719,23,24,-177
1749722471334.531,254591,1749722471315.562,25,31,-170
1749722471354.344,254140,1749722471335.437,19,36,-177
1749722471374.25,253577,1749722471355.313,12,31,-172
1749722471394.094,253084,1749722471375.156,24,30,-177
1749722471413.938,252671,1749722471395.0,25,31,-177
1749722471433.781,252354,1749722471414.906,12,28,-177
1749722471453.656,252153,1749722471434.719,21,31,-170
1749722471473.5,251977,1749722471454.563,20,31,-177
1749722471493.375,251885,1749722471474.406,34,35,-177
1749722471513.25,251817,1749722471494.281,35,35,-177
1749722471533.062,251808,1749722471514.187,28,31,-179
1749722471552.937,251821,1749722471533.969,39,31,-160
1749722471572.781,251859,1749722471553.844,30,25,-164
1749722471592.625,251899,1749722471573.688,29,43,-172
1749722471612.469,251857,1749722471593.5618,35,32,-169
1749722471632.375,251764,1749722471613.406,33,30,-164
1749722471652.219,251633,1749722471633.25,31,30,-146
1749722471672.031,251488,1749722471653.125,15,32,-167
1749722471691.875,251326,1749722471672.969,27,32,-170
1749722471711.75,251150,1749722471692.812,30,33,-185
1749722471731.625,250973,1749722471712.656,28,35,-177
1749722471751.438,250863,1749722471732.563,14,30,-168
1749722471771.281,250765,1749722471752.375,33,35,-173
1749722471791.156,250680,1749722471772.219,28,35,-177
1749722471811.0,250626,1749722471792.094,22,32,-177
1749722471830.844,250584,1749722471811.938,24,31,-177
1749722471850.75,250568,1749722471831.781,23,30,-169
1749722471870.563,250545,1749722471851.656,28,28,-177
1749722471890.4368,250550,1749722471871.469,24,27,-168
1749722471910.25,250518,1749722471891.344,22,31,-168
1749722471930.125,250530,1749722471911.188,23,48,-177
1749722471949.969,250511,1749722471931.031,19,31,-177
1749722471969.844,250513,1749722471950.875,30,24,-177
1749722471989.656,250517,1749722471970.719,27,31,-165
1749722472009.531,250522,1749722471990.656,22,26,-173
1749722472029.375,250517,1749722472010.469,27,28,-173
1749722472049.25,250523,1749722472030.312,15,32,-177
1749722472069.094,250510,1749722472050.187,20,33,-169
1749722472088.969,250531,1749722472070.031,31,31,-177
1749722472108.781,250563,1749722472089.875,28,30,-175
1749722472128.656,250593,1749722472109.688,16,31,-160
1749722472148.5,250619,1749722472129.594,25,30,-168
1749722472168.344,250648,1749722472149.437,28,32,-169
1749722472188.219,250703,1749722472169.281,24,30,-169
1749722472208.125,250736,1749722472189.125,16,28,-170
1749722472227.906,250680,1749722472208.9692,20,31,-168
1749722472247.75,250439,1749722472228.844,19,26,-172
1749722472267.594,250051,1749722472248.688,36,32,-168
1749722472287.469,249583,1749722472268.5,20,30,-169
1749722472307.281,249055,1749722472288.406,19,27,-170
1749722472327.156,248577,1749722472308.219,27,31,-153
1749722472347.0,248193,1749722472328.094,24,28,-170
1749722472366.875,247900,1749722472347.938,23,25,-177
1749722472386.719,247651,1749722472367.781,31,32,-177
1749722472406.594,247500,1749722472387.656,31,26,-172
1749722472426.406,247384,1749722472407.531,22,29,-170
1749722472446.312,247311,1749722472427.344,27,25,-177
1749722472466.125,247231,1749722472447.219,28,31,-169
1749722472485.969,247217,1749722472467.062,19,31,-164
1749722472505.8442,247213,1749722472486.937,32,31,-169
1749722472525.719,247132,1749722472506.75,31,28,-170
1749722472545.563,247132,1749722472526.625,33,30,-177
1749722472565.406,247032,1749722472546.5,16,28,-169
1749722472585.25,246833,1749722472566.375,31,32,-170
1749722472605.094,246772,1749722472586.1868,24,35,-173
1749722472624.969,246600,1749722472606.031,28,31,-177
1749722472644.813,246489,1749722472625.875,30,27,-165
1749722472664.656,246397,1749722472645.75,16,36,-173
1749722472684.531,246304,1749722472665.562,28,25,-177
1749722472704.375,246230,1749722472685.437,28,30,-177
1749722472724.188,246206,1749722472705.281,28,31,-158
1749722472744.063,246154,1749722472725.156,23,28,-168
1749722472763.906,246116,1749722472744.969,31,31,-177
1749722472783.781,246128,1749722472764.812,20,28,-170
1749722472803.594,246115,1749722472784.688,15,31,-164
1749722472823.438,246104,1749722472804.531,21,30,-166
1749722472843.313,246117,1749722472824.344,15,28,-168
1749722472863.156,246129,1749722472844.219,19,33,-169
1749722472882.969,246121,1749722472864.062,24,35,-177
1749722472902.844,246133,1749722472883.938,31,25,-170
1749722472922.688,246099,1749722472903.75,21,33,-168
1749722472942.563,246120,1749722472923.625,32,34,-169
1749722472962.375,246130,1749722472943.469,28,28,-166
1749722472982.219,246115,1749722472963.344,22,30,-164
1749722473002.094,246134,1749722472983.156,31,44,-173
1749722473021.969,246099,1749722473003.0,31,30,-173
1749722473041.781,246133,1749722473022.875,36,36,-177
1749722473061.656,246134,1749722473042.75,35,31,-160
1749722473081.5,246067,1749722473062.563,31,30,-173
1749722473101.344,246160,1749722473082.406,30,28,-161
1749722473121.188,246168,1749722473102.25,28,31,-169
1749722473141.031,246116,1749722473122.125,19,23,-167
1749722473160.875,246171,1749722473141.969,19,31,-177
1749722473180.75,245995,1749722473161.813,23,25,-172
1749722473200.563,245636,1749722473181.6558,16,31,-169
1749722473220.406,245174,1749722473201.531,17,31,-177
1749722473240.281,244666,1749722473221.344,23,24,-170
1749722473260.125,244153,1749722473241.219,19,30,-168
1749722473279.969,243682,1749722473261.063,32,32,-170
1749722473299.813,243339,1749722473280.906,24,30,-168
1749722473319.687,243036,1749722473300.75,25,31,-178
1749722473339.531,242808,1749722473320.625,32,40,-170
1749722473359.375,242657,1749722473340.438,21,34,-169
1749722473379.219,242506,1749722473360.313,28,30,-170
1749722473399.094,242403,1749722473380.156,19,28,-164
1749722473418.937,242351,1749722473400.0,20,28,-165
1749722473438.781,242280,1749722473419.844,31,27,-177
1749722473458.594,242206,1749722473439.719,31,30,-168
1749722473478.469,242108,1749722473459.531,22,31,-169
1749722473498.281,241981,1749722473479.375,20,28,-165
1749722473518.156,241830,1749722473499.219,23,28,-170
1749722473537.969,241597,1749722473519.094,31,28,-169
1749722473557.844,241468,1749722473538.938,21,31,-177
1749722473577.719,241269,1749722473558.75,27,28,-160
1749722473597.562,241086,1749722473578.625,31,22,-169
1749722473617.375,240963,1749722473598.469,44,32,-166
1749722473637.281,240773,1749722473618.281,27,30,-173
1749722473657.094,240709,1749722473638.156,19,31,-175
1749722473676.938,240642,1749722473658.0,17,38,-177
1749722473696.781,240562,1749722473677.844,24,31,-177
1749722473716.625,240473,1749722473697.719,27,28,-181
1749722473736.5,240445,1749722473717.563,30,28,-177
1749722473756.375,240368,1749722473737.437,31,30,-170
1749722473776.156,240333,1749722473757.312,19,30,-168
1749722473796.062,240253,1749722473777.062,28,30,-173
1749722473815.969,240222,1749722473796.969,17,28,-170
1749722473835.813,240157,1749722473816.875,26,30,-170
1749722473855.656,240117,1749722473836.687,27,28,-175
1749722473875.625,240064,1749722473856.594,31,27,-173
1749722473895.406,240013,1749722473876.563,9,30,-167
1749722473915.281,239945,1749722473896.344,31,28,-173
1749722473935.125,239901,1749722473916.187,24,28,-164
1749722473954.969,239848,1749722473936.062,15,24,-173
1749722473974.844,239777,1749722473955.875,25,33,-173
1749722473994.781,239712,1749722473975.75,24,28,-170
1749722474014.563,239689,1749722473995.656,16,31,-176
1749722474034.437,239611,1749722474015.5,31,31,-172
1749722474054.281,239595,1749722474035.344,32,32,-173
1749722474074.156,239555,1749722474055.188,17,28,-169
1749722474094.0,239512,1749722474075.063,23,35,-168
1749722474113.844,239365,1749722474094.969,32,28,-177
1749722474133.719,239044,1749722474114.75,22,31,-169
1749722474153.594,238575,1749722474134.594,27,30,-175
1749722474173.406,238009,1749722474154.5,19,29,-177
1749722474193.281,237400,1749722474174.344,36,28,-177
1749722474213.125,236868,1749722474194.156,33,24,-173
1749722474233.0,236370,1749722474214.031,19,31,-164
1749722474252.844,235962,1749722474233.875,28,38,-177
1749722474272.75,235606,1749722474253.812,28,32,-177
1749722474292.562,235381,1749722474273.656,30,35,-160
1749722474312.437,235177,1749722474293.469,30,28,-168
1749722474332.25,234968,1749722474313.344,31,30,-175
1749722474352.125,234848,1749722474333.219,17,39,-173
1749722474371.969,234751,1749722474353.031,35,28,-173
1749722474391.875,234635,1749722474372.875,19,32,-177
1749722474411.656,234518,1749722474392.75,29,23,-157
1749722474431.531,234358,1749722474412.625,28,30,-172
1749722474451.406,234153,1749722474432.469,30,32,-166
1749722474471.25,233930,1749722474452.312,30,31,-177
1749722474491.094,233667,1749722474472.188,17,30,-168
1749722474510.938,233408,1749722474492.063,28,25,-173
1749722474530.813,233153,1749722474511.844,31,30,-173
1749722474550.687,232933,1749722474531.687,33,34,-173
1749722474570.5,232753,1749722474551.594,32,25,-170
1749722474590.375,232566,1749722474571.438,29,28,-169
1749722474610.25,232439,1749722474591.313,16,30,-168
1749722474630.156,232292,1749722474611.187,28,30,-174
1749722474649.937,232182,1749722474631.031,30,27,-173
1749722474669.812,232022,1749722474650.906,30,30,-177
1749722474689.656,231956,1749722474670.75,28,34,-168
1749722474709.531,231860,1749722474690.562,31,28,-169
1749722474729.375,231756,1749722474710.437,30,30,-177
1749722474749.25,231668,1749722474730.313,27,51,-164
1749722474769.094,231579,1749722474750.156,33,31,-170
1749722474788.969,231502,1749722474770.0,29,31,-177
1749722474808.812,231386,1749722474789.875,20,32,-177
1749722474828.687,231250,1749722474809.75,24,31,-177
1749722474848.531,231208,1749722474829.594,16,31,-174
1749722474868.406,231110,1749722474849.562,31,35,-177
1749722474888.25,231018,1749722474869.312,25,28,-162
1749722474908.094,230931,1749722474889.187,32,27,-177
1749722474927.969,230844,1749722474908.969,15,30,-169
1749722474947.938,230768,1749722474928.875,31,28,-173
1749722474967.656,230679,1749722474948.875,27,28,-177
1749722474987.562,230612,1749722474968.594,22,23,-173
1749722475007.437,230520,1749722474988.469,24,30,-173
1749722475027.281,230427,1749722475008.344,30,27,-170
1749722475047.125,230151,1749722475028.219,30,35,-175
1749722475067.062,229701,1749722475048.062,15,28,-169
1749722475086.875,229173,1749722475067.906,20,23,-168
1749722475106.719,228593,1749722475087.781,30,32,-177
1749722475126.563,227999,1749722475107.656,33,25,-173
1749722475146.4692,227438,1749722475127.5,31,24,-177
1749722475166.312,226978,1749722475147.375,27,31,-172
1749722475186.188,226627,1749722475167.219,17,31,-173
1749722475206.031,226342,1749722475187.094,25,31,-176
1749722475225.906,226113,1749722475207.0,16,28,-170
1749722475245.75,225965,1749722475226.8118,28,28,-172
1749722475265.625,225811,1749722475246.719,33,27,-169
1749722475285.469,225719,1749722475266.531,35,24,-177
1749722475305.344,225655,1749722475286.437,20,25,-177
1749722475325.219,225590,1749722475306.25,28,25,-177
1749722475345.125,225516,1749722475326.125,31,30,-177
1749722475364.906,225401,1749722475346.094,16,25,-173
1749722475384.813,225245,1749722475365.875,19,31,-168
1749722475404.656,225061,1749722475385.687,31,28,-177
1749722475424.5,224914,1749722475405.562,43,32,-170
1749722475444.375,224740,1749722475425.438,28,27,-180
1749722475464.219,224573,1749722475445.312,27,28,-170
1749722475484.094,224466,1749722475465.156,22,29,-158
1749722475503.969,224344,1749722475485.0,20,30,-177
1749722475523.813,224257,1749722475504.875,28,25,-173
1749722475543.688,224210,1749722475524.719,24,32,-170
1749722475563.562,224155,1749722475544.594,25,33,-172
1749722475583.375,224161,1749722475564.5,24,30,-173
1749722475603.25,224144,1749722475584.469,28,30,-177
1749722475623.125,224164,1749722475604.156,24,28,-160
1749722475643.0,224142,1749722475624.031,28,31,-169
1749722475662.844,224171,1749722475643.906,29,28,-169
1749722475682.813,224195,1749722475663.781,28,27,-169
1749722475702.563,224206,1749722475683.688,24,27,-173
1749722475722.469,224241,1749722475703.469,15,23,-177
1749722475742.312,224257,1749722475723.375,20,24,-172
1749722475762.156,224296,1749722475743.25,28,27,-173
1749722475782.063,224310,1749722475763.063,25,25,-170
1749722475801.938,224272,1749722475782.969,22,28,-164
1749722475821.75,223937,1749722475802.781,16,15,-176
1749722475841.625,223129,1749722475822.687,7,27,-172
1749722475861.469,222923,1749722475842.531,47,15,-121
1749722475881.375,223677,1749722475862.375,51,-24,-129
1749722475901.219,225133,1749722475882.281,35,-36,-125
1749722475921.062,229257,1749722475902.156,8,97,-212
1749722475940.938,231848,1749722475921.969,-328,140,-244
1749722475960.813,232491,1749722475941.875,-352,79,-161
1749722475980.625,231507,1749722475961.719,-45,65,-62
1749722476000.531,229495,1749722475981.594,39,59,32
1749722476020.375,228336,1749722476001.438,-20,28,31
1749722476040.281,228030,1749722476021.313,-157,-4,-26
1749722476060.125,228324,1749722476041.187,-166,-14,-82
1749722476080.0,229111,1749722476061.062,-153,16,-109
1749722476099.875,230527,1749722476080.906,-136,25,-111
1749722476119.719,232510,1749722476100.781,-120,24,-96
1749722476139.563,235080,1749722476120.656,-89,24,-98
1749722476159.437,238009,1749722476140.531,-64,27,-97
1749722476179.344,240611,1749722476160.344,-77,23,-94
1749722476199.219,242749,1749722476180.25,-82,24,-117
1749722476219.063,244491,1749722476200.125,-109,16,-137
1749722476238.937,245412,1749722476220.0,-138,27,-153
1749722476258.781,245648,1749722476239.844,-89,35,-160
1749722476278.656,245579,1749722476259.719,-21,39,-159
1749722476298.5,245586,1749722476279.594,19,40,-177
1749722476318.375,245876,1749722476299.437,38,38,-179
1749722476338.25,246312,1749722476319.313,30,25,-181
1749722476358.094,246649,1749722476339.156,-2,20,-185
1749722476377.969,246882,1749722476359.031,-49,20,-177
1749722476397.844,247062,1749722476378.906,-25,22,-165
1749722476417.719,247158,1749722476398.75,-13,19,-153
1749722476437.563,247149,1749722476418.625,-32,25,-153
1749722476457.406,247013,1749722476438.5,-25,39,-154
1749722476477.281,246728,1749722476458.344,-23,44,-157
1749722476497.156,246541,1749722476478.187,-1,43,-169
1749722476517.0,246299,1749722476498.063,-4,48,-160
1749722476536.875,246135,1749722476517.969,-13,39,-164
1749722476556.719,246034,1749722476537.781,-13,63,-159
1749722476576.594,245925,1749722476557.594,-2,44,-160
1749722476596.469,245970,1749722476577.531,-8,39,-161
1749722476616.281,245872,1749722476597.344,-8,25,-151
1749722476636.156,245735,1749722476617.25,-1,30,-162
1749722476656.0,245621,1749722476637.062,-2,24,-162
1749722476675.844,245460,1749722476656.906,3,24,-177
1749722476695.719,245298,1749722476676.75,-2,24,-160
1749722476715.625,245126,1749722476696.594,-5,28,-160
1749722476735.469,244956,1749722476716.531,-14,28,-160
1749722476755.281,244846,1749722476736.344,-12,31,-169
1749722476775.125,244725,1749722476756.219,-17,28,-173
1749722476795.0,244635,1749722476776.031,-16,30,-177
1749722476814.875,244567,1749722476795.906,3,33,-172
1749722476834.719,244454,1749722476815.75,-1,31,-169
1749722476854.562,244096,1749722476835.656,7,30,-173
1749722476874.438,243482,1749722476855.5,-6,32,-177
1749722476894.281,242768,1749722476875.344,12,35,-170
1749722476914.125,242011,1749722476895.187,7,31,-167
1749722476934.0,241290,1749722476915.062,7,36,-169
1749722476953.844,240671,1749722476934.938,12,48,-171
1749722476973.719,240142,1749722476954.75,10,44,-164
1749722476993.531,239785,1749722476974.625,12,41,-177
1749722477013.406,239536,1749722476994.5,14,41,-164
1749722477033.281,239429,1749722477014.344,3,46,-165
1749722477053.156,239330,1749722477034.188,7,48,-170
1749722477073.0,239337,1749722477054.156,11,39,-160
1749722477092.875,239363,1749722477073.937,14,42,-168
1749722477112.719,239351,1749722477093.781,6,40,-174
1749722477132.594,239297,1749722477113.656,14,35,-169
1749722477152.531,239168,1749722477133.5,12,38,-162
1749722477172.281,239004,1749722477153.437,8,33,-160
1749722477192.156,238761,1749722477173.187,6,31,-160
1749722477212.031,238424,1749722477193.094,11,36,-164
1749722477231.844,238156,1749722477212.969,-17,34,-168
1749722477251.719,237830,1749722477232.781,4,34,-167
1749722477271.594,237509,1749722477252.656,3,33,-162
1749722477291.469,237202,1749722477272.469,0,40,-170
1749722477311.313,236862,1749722477292.375,1,35,-169
1749722477331.156,236619,1749722477312.219,7,24,-160
1749722477351.031,236369,1749722477332.094,-2,32,-169
1749722477370.906,236126,1749722477351.969,-1,32,-168
1749722477390.75,235888,1749722477371.813,1,35,-170
1749722477410.625,235658,1749722477391.687,-2,40,-186
1749722477430.5,235469,1749722477411.531,-9,41,-185
1749722477450.344,235352,1749722477431.375,15,39,-166
1749722477470.219,235254,1749722477451.219,8,39,-160
1749722477490.094,235127,1749722477471.1558,-4,43,-157
1749722477509.937,235013,1749722477491.0,-16,36,-160
1749722477529.812,234869,1749722477510.875,-4,40,-170
1749722477549.688,234746,1749722477530.719,4,39,-169
1749722477569.594,234655,1749722477550.625,11,38,-171
1749722477589.406,234593,1749722477570.469,5,39,-160
1749722477609.25,234514,1749722477590.312,6,43,-169
1749722477629.094,234477,1749722477610.156,19,43,-160
1749722477648.969,234384,1749722477630.063,-4,38,-162
1749722477668.813,234256,1749722477649.875,-2,39,-169
1749722477688.719,233973,1749722477669.75,3,51,-161
1749722477708.531,233446,1749722477689.625,12,35,-177
1749722477728.406,232802,1749722477709.469,9,39,-170
1749722477748.281,232046,1749722477729.344,8,39,-165
1749722477768.156,231258,1749722477749.187,9,35,-168
1749722477787.969,230663,1749722477769.063,12,39,-161
1749722477807.844,230082,1749722477788.906,12,32,-169
1749722477827.719,229630,1749722477808.75,1,33,-177
1749722477847.594,229270,1749722477828.656,4,30,-173
1749722477867.406,228966,1749722477848.5,6,38,-177
1749722477887.406,228733,1749722477868.344,7,35,-167
1749722477907.156,228528,1749722477888.281,4,33,-175
1749722477927.031,228351,1749722477908.031,-1,31,-169
1749722477946.875,228204,1749722477927.937,-8,35,-165
1749722477966.75,227990,1749722477947.813,-1,31,-169
1749722477986.625,227768,1749722477967.625,3,34,-173
1749722478006.5,227469,1749722477987.562,-2,33,-168
1749722478026.344,227151,1749722478007.437,3,22,-168
1749722478046.187,226811,1749722478027.281,9,35,-164
1749722478066.094,226510,1749722478047.125,-4,39,-170
1749722478085.938,226182,1749722478067.0,11,25,-164
1749722478105.812,225898,1749722478086.875,-1,31,-167
1749722478125.656,225635,1749722478106.75,9,36,-169
1749722478145.531,225410,1749722478126.594,-4,35,-175
1749722478165.375,225207,1749722478146.437,-2,35,-170
1749722478185.219,225034,1749722478166.312,6,30,-160
1749722478205.125,224909,1749722478186.188,2,31,-167
1749722478224.969,224722,1749722478206.0,3,35,-169
1749722478244.813,224638,1749722478225.875,1,35,-160
1749722478264.687,224542,1749722478245.75,-7,32,-169
1749722478284.562,224416,1749722478265.625,-1,33,-167
1749722478304.469,224330,1749722478285.469,-2,32,-177
1749722478324.281,224225,1749722478305.344,7,28,-160
1749722478344.156,224137,1749722478325.219,-1,28,-162
1749722478364.0,224051,1749722478345.062,-2,35,-165
1749722478383.875,223981,1749722478364.938,-1,32,-172
1749722478403.719,223889,1749722478384.813,7,31,-162
1749722478423.563,223842,1749722478404.656,8,46,-169
1749722478443.437,223761,1749722478424.469,8,30,-169
1749722478463.312,223717,1749722478444.313,6,31,-160
1749722478483.156,223702,1749722478464.219,4,28,-158
1749722478503.031,223665,1749722478484.094,7,28,-169
1749722478522.875,223625,1749722478503.937,-4,31,-165
1749722478542.75,223567,1749722478523.906,-5,32,-169
1749722478562.594,223364,1749722478543.656,10,30,-164
1749722478582.469,222971,1749722478563.531,7,28,-170
1749722478602.312,222501,1749722478583.375,3,28,-169
1749722478622.281,221982,1749722478603.25,7,31,-166
1749722478642.031,221489,1749722478623.156,5,28,-177
1749722478661.906,221041,1749722478642.969,-1,31,-170
1749722478681.781,220705,1749722478662.844,3,33,-168
1749722478701.656,220479,1749722478682.719,-1,31,-168
1749722478721.5,220331,1749722478702.563,-6,35,-169
1749722478741.375,220229,1749722478722.438,-8,33,-168
1749722478761.219,220168,1749722478742.281,3,31,-160
1749722478781.094,220160,1749722478762.125,-4,33,-164
1749722478800.937,220189,1749722478781.969,-1,31,-160
1749722478820.813,220211,1749722478801.875,-1,32,-161
1749722478840.688,220193,1749722478821.719,8,28,-160
1749722478860.531,220153,1749722478841.594,-4,35,-164
1749722478880.406,220057,1749722478861.469,3,35,-168
1749722478900.25,219962,1749722478881.344,8,31,-173
1749722478920.125,219837,1749722478901.187,-1,35,-170
1749722478940.0,219734,1749722478921.031,9,35,-169
1749722478959.844,219558,1749722478940.938,-2,33,-170
1749722478979.719,219530,1749722478960.844,6,32,-169
1749722478999.594,219448,1749722478980.594,5,33,-177
1749722479019.469,219386,1749722479000.5,-4,39,-177
1749722479039.3118,219414,1749722479020.344,14,40,-177
1749722479059.188,219420,1749722479040.25,7,32,-160
1749722479079.063,219414,1749722479060.0942,7,31,-164
1749722479098.906,219476,1749722479079.969,8,38,-162
1749722479118.75,219516,1749722479099.812,-2,33,-162
1749722479138.625,219535,1749722479119.688,2,35,-169
1749722479158.5,219599,1749722479139.531,-4,40,-177
1749722479178.375,219626,1749722479159.406,4,25,-168
1749722479198.187,219673,1749722479179.281,4,31,-169
1749722479218.062,219695,1749722479199.125,-5,31,-160
1749722479237.938,219729,1749722479219.0,-4,35,-166
1749722479257.781,219775,1749722479238.844,8,33,-169
1749722479277.656,219807,1749722479258.687,-4,35,-177
1749722479297.5,219828,1749722479278.594,9,35,-169
1749722479317.344,219876,1749722479298.406,6,33,-169
1749722479337.219,219910,1749722479318.281,7,36,-169
1749722479357.062,219877,1749722479338.156,-5,36,-160
1749722479376.906,219940,1749722479358.0,3,38,-170
1749722479396.813,219945,1749722479377.844,9,31,-169
1749722479416.719,219721,1749722479397.719,8,35,-170
1749722479436.5,219468,1749722479417.562,-17,33,-146
1749722479456.344,219118,1749722479437.437,-4,30,-162
1749722479476.25,218728,1749722479457.281,-8,35,-162
1749722479496.094,218383,1749722479477.125,-8,31,-160
1749722479515.938,218047,1749722479496.969,4,32,-167
1749722479535.781,217879,1749722479516.875,-4,28,-169
1749722479555.656,217776,1749722479536.688,8,24,-177
1749722479575.5,217744,1749722479556.563,11,36,-170
1749722479595.344,217743,1749722479576.437,-4,33,-169
1749722479615.187,217819,1749722479596.281,-7,33,-172
1749722479635.062,217910,1749722479616.125,6,33,-169
1749722479654.938,218040,1749722479635.969,7,31,-160
1749722479674.781,218129,1749722479655.906,8,35,-165
1749722479694.656,218197,1749722479675.75,7,31,-166
1749722479714.531,218231,1749722479695.5618,6,33,-160
1749722479734.375,218226,1749722479715.438,7,28,-162
1749722479754.219,218189,1749722479735.313,12,31,-168
1749722479774.094,218148,1749722479755.156,-4,31,-173
1749722479793.969,218125,1749722479775.0,-2,35,-173
1749722479813.812,218081,1749722479794.875,-4,30,-169
1749722479833.688,218107,1749722479814.75,-1,32,-170
1749722479853.563,218146,1749722479834.625,-3,35,-170
1749722479873.406,218176,1749722479854.469,-4,31,-162
1749722479893.25,218230,1749722479874.344,7,40,-172
1749722479913.125,218325,1749722479894.188,7,31,-173
1749722479932.969,218434,1749722479914.062,8,35,-168
1749722479952.844,218498,1749722479933.875,-2,33,-161
1749722479972.687,218620,1749722479953.75,-8,35,-165
1749722479992.531,218699,1749722479973.594,-2,32,-169
1749722480012.438,218806,1749722479993.469,-5,33,-168
1749722480032.312,218891,1749722480013.344,7,28,-168
1749722480052.156,218973,1749722480033.219,3,31,-166
1749722480072.031,219047,1749722480053.094,8,30,-170
1749722480092.0,219119,1749722480072.938,7,31,-164
1749722480111.7808,219196,1749722480092.906,-8,33,-160
1749722480131.625,219292,1749722480112.656,0,31,-173
1749722480151.5,219364,1749722480132.531,1,32,-177
1749722480171.344,219449,1749722480152.406,-4,30,-166
1749722480191.25,219530,1749722480172.281,12,31,-164
1749722480211.094,219477,1749722480192.156,4,31,-166
1749722480230.969,219335,1749722480212.031,0,31,-177
1749722480250.844,219077,1749722480231.875,-8,35,-166
1749722480270.719,218727,1749722480251.75,7,30,-164
1749722480290.562,218415,1749722480271.625,-2,23,-158
1749722480310.437,218115,1749722480291.437,3,27,-160
1749722480330.281,217876,1749722480311.375,-2,31,-164
1749722480350.156,217750,1749722480331.187,6,33,-176
1749722480370.031,217691,1749722480351.062,6,34,-173
1749722480389.844,217682,1749722480370.938,-1,28,-177
1749722480409.75,217746,1749722480390.781,8,31,-167
1749722480429.625,217941,1749722480410.656,4,24,-169
1749722480449.406,218246,1749722480430.531,-12,25,-160
1749722480469.281,218488,1749722480450.344,-21,19,-171
1749722480489.156,218257,1749722480470.219,-45,4,-168
1749722480509.063,216938,1749722480490.063,-64,-19,-146
1749722480528.8442,215304,1749722480509.906,9,-2,-80
1749722480548.687,215206,1749722480529.781,161,44,-58
1749722480568.562,215897,1749722480549.594,95,92,-116
1749722480588.438,216961,1749722480569.5,20,144,-79
1749722480608.281,218630,1749722480589.344,-540,56,-97
1749722480628.156,219869,1749722480609.219,-456,23,-122
1749722480648.0,221312,1749722480629.062,-25,-4,-64
1749722480667.844,222643,1749722480648.906,78,1,-57
1749722480687.6882,223316,1749722480668.781,-29,16,-26
1749722480707.562,224235,1749722480688.625,-200,12,-17
1749722480727.406,225878,1749722480708.469,-233,-15,-33
1749722480747.281,227364,1749722480728.313,-208,-25,-64
1749722480767.125,228274,1749722480748.219,-144,48,-104
1749722480786.969,229485,1749722480768.062,-60,62,-128
1749722480806.875,230771,1749722480787.906,-57,60,-128
1749722480826.719,231869,1749722480807.781,-72,63,-128
1749722480846.531,232895,1749722480827.625,-72,64,-128
1749722480866.406,233728,1749722480847.5,-77,65,-122
1749722480886.281,234544,1749722480867.312,-56,59,-122
1749722480906.125,235383,1749722480887.219,-61,54,-137
1749722480925.969,236058,1749722480907.063,-57,64,-161
1749722480945.844,236620,1749722480926.938,-40,60,-180
1749722480965.719,237099,1749722480946.75,-29,39,-173
1749722480985.594,237422,1749722480966.594,-13,14,-160
1749722481005.406,237852,1749722480986.5,-32,-1,-152
1749722481025.281,238405,1749722481006.375,-55,-6,-155
1749722481045.125,239061,1749722481026.187,-84,7,-153
1749722481065.0,239815,1749722481046.031,-82,19,-153
1749722481084.812,240545,1749722481065.938,-61,28,-145
1749722481104.688,241046,1749722481085.75,-34,35,-144
1749722481124.531,241396,1749722481105.594,-45,47,-157
1749722481144.406,241472,1749722481125.437,-45,52,-161
1749722481164.219,241449,1749722481145.281,-34,49,-160
1749722481184.062,241554,1749722481165.188,-28,54,-148
1749722481203.938,241613,1749722481184.969,-29,49,-138
1749722481223.781,241642,1749722481204.844,-29,51,-145
1749722481243.625,241906,1749722481224.719,-21,47,-143
1749722481263.469,242213,1749722481244.531,-16,42,-145
1749722481283.406,242516,1749722481264.406,-40,32,-148
1749722481303.188,242890,1749722481284.219,-32,15,-152
1749722481323.031,243267,1749722481304.125,-33,24,-161
1749722481342.906,243654,1749722481323.969,-25,24,-169
1749722481362.75,244027,1749722481343.813,-40,20,-185
1749722481382.625,244277,1749722481363.656,-32,25,-160
1749722481402.438,244605,1749722481383.5,-29,24,-154
1749722481422.312,244772,1749722481403.375,-32,20,-161
1749722481442.187,244855,1749722481423.219,-45,27,-153
1749722481462.031,244861,1749722481443.094,-55,30,-153
1749722481481.875,244792,1749722481462.969,-42,31,-162
1749722481501.75,244581,1749722481482.844,-31,33,-154
1749722481521.594,244504,1749722481502.656,-29,40,-165
1749722481541.469,244414,1749722481522.531,-29,55,-162
1749722481561.313,244300,1749722481542.375,-36,48,-160
1749722481581.156,244245,1749722481562.25,-25,46,-161
1749722481601.031,244193,1749722481582.031,-31,44,-152
1749722481620.906,244198,1749722481601.906,-32,39,-144
1749722481640.75,244269,1749722481621.844,-49,55,-158
1749722481660.625,244375,1749722481641.687,-32,41,-157
1749722481680.562,244481,1749722481661.531,-40,39,-154
1749722481700.344,244611,1749722481681.438,-41,31,-141
1749722481720.188,244701,1749722481701.344,-31,39,-153
1749722481740.031,244770,1749722481721.1558,-34,36,-161
1749722481759.937,244863,1749722481740.969,-45,36,-162
1749722481779.781,244973,1749722481760.844,-31,31,-154
1749722481799.656,245047,1749722481780.688,-36,31,-153
1749722481819.5,245097,1749722481800.594,-45,30,-157
1749722481839.375,245149,1749722481820.406,-33,28,-157
1749722481859.219,245255,1749722481840.312,-26,28,-161
1749722481879.031,245373,1749722481860.125,-32,28,-153
1749722481898.938,245488,1749722481880.0,-32,24,-152
1749722481918.813,245575,1749722481899.812,-42,26,-145
1749722481938.656,245682,1749722481919.656,-36,23,-144
1749722481958.5,245774,1749722481939.531,-40,22,-153
1749722481978.375,245875,1749722481959.406,-32,24,-157
1749722481998.219,245980,1749722481979.281,-40,28,-160
1749722482018.094,246054,1749722481999.125,-28,26,-159
1749722482037.906,246174,1749722482019.0,-31,28,-159
1749722482057.781,246285,1749722482038.875,-33,22,-153
1749722482077.625,246347,1749722482058.688,-34,19,-157
1749722482097.5,246373,1749722482078.531,-29,23,-152
1749722482117.344,246268,1749722482098.406,-29,28,-160
1749722482137.187,245951,1749722482118.25,-26,30,-169
1749722482157.063,245581,1749722482138.094,-28,28,-164
1749722482176.938,245166,1749722482157.969,-34,28,-156
1749722482196.719,244803,1749722482177.844,-32,25,-157
1749722482216.625,244499,1749722482197.687,-33,30,-161
1749722482236.594,244330,1749722482217.5,-39,35,-153
1749722482256.313,244278,1749722482237.5,-31,39,-149
1749722482276.156,244326,1749722482257.25,-36,31,-153
1749722482296.031,244373,1749722482277.125,-34,36,-161
1749722482315.906,244456,1749722482296.938,-41,35,-153
1749722482335.75,244543,1749722482316.813,-40,39,-149
1749722482355.687,244602,1749722482336.687,-37,40,-152
1749722482375.437,244702,1749722482356.531,-32,35,-154
1749722482395.312,244785,1749722482376.375,-31,38,-161
1749722482415.156,244825,1749722482396.188,-32,35,-159
1749722482434.969,244853,1749722482416.0308,-34,33,-148
1749722482454.844,244804,1749722482435.906,-42,35,-160
1749722482474.687,244862,1749722482455.75,-37,26,-147
1749722482494.562,244804,1749722482475.656,-40,31,-157
1749722482514.375,244711,1749722482495.469,-43,28,-157
1749722482534.219,244630,1749722482515.312,-40,29,-160
1749722482554.094,244558,1749722482535.156,-45,30,-159
1749722482574.031,244520,1749722482555.0,-42,35,-155
1749722482593.75,244497,1749722482574.969,-40,32,-157
1749722482613.656,244486,1749722482594.688,-42,30,-153
1749722482633.5,244443,1749722482614.562,-40,25,-159
1749722482653.344,244449,1749722482634.406,-33,24,-157
1749722482673.156,244420,1749722482654.281,-29,28,-161
1749722482693.125,244409,1749722482674.125,-29,32,-156
1749722482712.875,244471,1749722482693.969,-36,33,-161
1749722482732.75,244506,1749722482713.812,-39,28,-154
1749722482752.594,244553,1749722482733.656,-31,28,-153
1749722482772.469,244607,1749722482753.531,-34,28,-160
1749722482792.313,244688,1749722482773.406,-32,31,-153
1749722482812.156,244736,1749722482793.25,-34,30,-161
1749722482832.0,244816,1749722482813.094,-31,25,-154
1749722482851.844,244873,1749722482832.938,-36,26,-161
1749722482871.688,244957,1749722482852.781,-30,31,-160
1749722482891.563,245029,1749722482872.625,-36,30,-154
1749722482911.437,245101,1749722482892.5,-42,31,-154
1749722482931.25,245189,1749722482912.375,-45,30,-160
1749722482951.125,245256,1749722482932.188,-32,25,-159
1749722482971.0,245338,1749722482952.063,-40,31,-161
1749722482990.875,245426,1749722482971.906,-40,24,-154
1749722483010.719,245469,1749722482991.781,-44,31,-152
1749722483030.594,245571,1749722483011.656,-29,24,-157
1749722483050.406,245675,1749722483031.469,-32,28,-160
1749722483070.281,245775,1749722483051.312,-33,31,-153
1749722483090.094,245872,1749722483071.156,-33,28,-155
1749722483109.969,245979,1749722483091.063,-31,32,-161
1749722483129.813,246103,1749722483110.875,-40,31,-156
1749722483149.688,246206,1749722483130.75,-36,31,-154
1749722483169.5,246311,1749722483150.594,-34,24,-162
1749722483189.375,246326,1749722483170.469,-37,30,-158
1749722483209.219,246149,1749722483190.281,-45,28,-150
1749722483229.094,245825,1749722483210.125,-25,28,-153
1749722483248.938,245459,1749722483230.0,-36,32,-153
1749722483268.781,245078,1749722483249.875,-39,31,-154
1749722483288.656,244715,1749722483269.719,-31,35,-156
1749722483308.594,244382,1749722483289.563,-43,28,-151
1749722483328.375,244171,1749722483309.562,-47,27,-160
1749722483348.25,244032,1749722483329.312,-47,28,-152
1749722483368.125,243923,1749722483349.188,-40,35,-152
1749722483388.0,243863,1749722483369.063,-33,48,-154
1749722483407.844,243802,1749722483388.875,-34,30,-159
1749722483427.687,243793,1749722483408.781,-40,31,-161
1749722483447.562,243843,1749722483428.594,-41,31,-137
1749722483467.438,243857,1749722483448.531,-32,31,-153
1749722483487.281,243847,1749722483468.344,-41,30,-153
1749722483507.156,243815,1749722483488.219,-32,31,-157
1749722483527.031,243758,1749722483508.0618,-42,28,-153
1749722483546.875,243687,1749722483527.969,-39,31,-157
1749722483566.75,243620,1749722483547.813,-28,28,-154
1749722483586.625,243532,1749722483567.687,-37,30,-158
1749722483606.5,243460,1749722483587.562,-29,31,-153
1749722483626.344,243442,1749722483607.406,-33,28,-153
1749722483646.313,243399,1749722483627.281,-31,30,-159
1749722483666.063,243407,1749722483647.219,-47,29,-157
1749722483685.937,243447,1749722483667.0,-39,31,-161
1749722483705.781,243459,1749722483686.844,-38,31,-159
1749722483725.625,243526,1749722483706.75,-33,19,-157
1749722483745.531,243591,1749722483726.562,-34,23,-160
1749722483765.469,243663,1749722483746.437,-33,30,-158
1749722483785.187,243847,1749722483766.281,-40,15,-164
1749722483805.094,243842,1749722483786.156,-56,30,-169
1749722483824.938,244052,1749722483806.0,-102,48,-183
1749722483844.781,245270,1749722483825.844,-52,152,-319
1749722483864.625,246448,1749722483845.719,-192,238,-337
1749722483884.437,250044,1749722483865.563,-344,143,-233
1749722483904.313,251147,1749722483885.406,-34,-61,-114
1749722483924.188,252419,1749722483905.25,224,-173,9
1749722483944.0,253281,1749722483925.094,159,-149,64
1749722483963.875,254582,1749722483944.937,124,-95,69
1749722483983.75,256206,1749722483964.813,-197,-41,-17
1749722484003.594,258310,1749722483984.688,-449,22,-76
1749722484023.438,261225,1749722484004.469,-204,39,-82
1749722484043.312,263715,1749722484024.375,-94,31,-49
1749722484063.156,265099,1749722484044.219,-56,-16,-95
1749722484083.031,266091,1749722484064.063,-63,-9,-151
1749722484102.875,266596,1749722484083.937,-8,28,-153
1749722484122.75,266882,1749722484103.812,15,29,-121
1749722484142.625,267156,1749722484123.688,28,3,-89
1749722484162.469,267265,1749722484143.531,-1,-4,-64
1749722484182.313,267505,1749722484163.375,-45,7,-46
1749722484202.187,267589,1749722484183.25,-34,51,-81
1749722484222.062,268373,1749722484203.125,-113,63,-177
1749722484241.9382,268979,1749722484222.969,-189,56,-221
1749722484261.781,268810,1749722484242.875,-185,71,-244
1749722484281.656,268142,1749722484262.719,-121,99,-241
1749722484301.531,267333,1749722484282.562,-13,76,-189
1749722484321.406,266691,1749722484302.469,81,49,-138
1749722484341.219,266188,1749722484322.2808,72,46,-128
1749722484361.094,265857,1749722484342.156,7,19,-185
1749722484380.969,265643,1749722484362.0,-25,19,-189
1749722484400.844,265565,1749722484381.875,-80,18,-191
1749722484420.688,265434,1749722484401.75,-103,12,-177
1749722484440.562,265073,1749722484421.625,-57,19,-167
1749722484460.437,264662,1749722484441.469,-8,44,-145
1749722484480.313,264192,1749722484461.344,-8,49,-140
1749722484500.156,263779,1749722484481.219,14,51,-148
1749722484520.062,263418,1749722484501.062,-1,48,-150
1749722484539.937,263076,1749722484520.969,-31,48,-153
1749722484559.813,262720,1749722484540.813,-31,43,-157
1749722484579.656,262332,1749722484560.688,-36,37,-160
1749722484599.5942,261842,1749722484580.594,-34,39,-169
1749722484619.406,261489,1749722484600.5,-30,46,-170
1749722484639.313,261074,1749722484620.313,-18,52,-178
1749722484659.125,260745,1749722484640.219,-13,48,-165
1749722484679.0,260495,1749722484660.062,-11,51,-157
1749722484698.875,260281,1749722484680.0,-24,49,-153
1749722484718.75,260116,1749722484699.813,-30,51,-154
1749722484738.625,260005,1749722484719.688,-30,50,-161
1749722484758.5,259917,1749722484739.562,-20,44,-160
1749722484778.375,259867,1749722484759.406,-16,44,-162
1749722484798.25,259813,1749722484779.313,-10,36,-160
1749722484818.094,259807,1749722484799.156,-23,35,-152
1749722484837.969,259754,1749722484819.0,-27,36,-161
1749722484857.812,259684,1749722484838.875,-16,41,-162
1749722484877.687,259559,1749722484858.719,-36,39,-157
1749722484897.531,259457,1749722484878.625,-35,40,-161
1749722484917.406,259335,1749722484898.469,-23,48,-146
1749722484937.281,259199,1749722484918.312,-20,39,-160
1749722484957.125,259071,1749722484938.219,-16,35,-162
1749722484977.031,258946,1749722484958.063,-25,39,-160
1749722484996.906,258724,1749722484977.937,-34,35,-163
1749722485016.75,258687,1749722484997.812,-33,38,-144
1749722485036.594,258541,1749722485017.688,-24,35,-165
1749722485056.469,258416,1749722485037.563,-20,38,-168
1749722485076.313,258303,1749722485057.375,-20,38,-162
1749722485096.187,258213,1749722485077.219,-20,39,-159
1749722485116.031,258151,1749722485097.062,-26,41,-160
1749722485135.875,258108,1749722485116.969,-24,41,-160
1749722485155.781,258098,1749722485136.781,-26,44,-160
1749722485175.625,258013,1749722485156.687,-32,41,-158
1749722485195.469,258002,1749722485176.531,-29,47,-157
1749722485215.312,257926,1749722485196.375,-23,40,-164
1749722485235.188,257628,1749722485216.219,-25,39,-160
1749722485255.031,257166,1749722485236.094,-25,50,-160
1749722485274.875,256572,1749722485255.937,-25,40,-157
1749722485294.75,255896,1749722485275.812,-24,39,-157
1749722485314.594,255247,1749722485295.656,-23,32,-153
1749722485334.469,254633,1749722485315.5,-21,44,-161
1749722485354.281,254149,1749722485335.344,-26,43,-160
1749722485374.125,253789,1749722485355.219,-31,40,-160
1749722485394.063,253468,1749722485375.063,-21,35,-162
1749722485413.875,253294,1749722485394.906,-23,31,-151
1749722485433.688,253080,1749722485414.812,-26,39,-157
1749722485453.594,252909,1749722485434.656,-28,41,-162
1749722485473.437,252766,1749722485454.469,-31,39,-160
1749722485493.313,252637,1749722485474.313,-24,42,-157
1749722485513.2192,252486,1749722485494.219,-32,43,-155
1749722485533.0,252311,1749722485514.156,-20,40,-157
1749722485552.875,252106,1749722485533.906,-25,41,-159
1749722485572.719,251823,1749722485553.813,-20,38,-164
1749722485592.563,251576,1749722485573.625,-37,56,-160
1749722485612.437,251290,1749722485593.531,-21,39,-161
1749722485632.312,251016,1749722485613.344,-25,40,-158
1749722485652.156,250796,1749722485633.219,-29,35,-149
1749722485672.0632,250543,1749722485653.125,-29,44,-161
1749722485691.875,250448,1749722485672.969,-29,47,-160
1749722485711.75,250320,1749722485692.781,-20,39,-161
1749722485731.625,250209,1749722485712.656,-21,44,-153
1749722485751.438,250119,1749722485732.5,-17,39,-160
1749722485771.281,250021,1749722485752.375,-31,41,-160
1749722485791.187,249961,1749722485772.219,-20,37,-162
1749722485811.031,249893,1749722485792.094,-20,40,-160
1749722485830.906,249826,1749722485811.938,-29,39,-159
1749722485850.75,249747,1749722485831.844,-20,37,-161
1749722485870.625,249686,1749722485851.687,-26,39,-165
1749722485890.5,249620,1749722485871.531,-27,35,-160
1749722485910.344,249551,1749722485891.406,-28,40,-159
1749722485930.188,249477,1749722485911.25,-31,30,-160
1749722485950.063,249416,1749722485931.125,-29,38,-161
1749722485970.031,249355,1749722485950.969,-17,38,-159
1749722485989.75,249315,1749722485970.844,-32,35,-157
1749722486009.625,249255,1749722485990.719,-31,43,-161
1749722486029.5,249211,1749722486010.531,-29,44,-162
1749722486049.344,249161,1749722486030.406,-31,40,-160
1749722486069.187,249128,1749722486050.281,-32,39,-162
1749722486089.031,249114,1749722486070.125,-21,44,-161
1749722486108.906,249074,1749722486089.938,-32,40,-157
1749722486128.781,249052,1749722486109.844,-29,41,-162
1749722486148.594,248998,1749722486129.687,-23,46,-162
1749722486168.5,248801,1749722486149.563,-23,40,-161
1749722486188.344,248338,1749722486169.406,-32,40,-161
1749722486208.219,247799,1749722486189.281,-33,38,-157
1749722486228.062,247184,1749722486209.125,-23,40,-157
1749722486247.906,246537,1749722486229.0,-24,39,-161
1749722486267.781,246000,1749722486248.844,-20,25,-160
1749722486287.656,245499,1749722486268.719,-34,39,-159
1749722486307.5,245109,1749722486288.562,-29,39,-164
1749722486327.375,244840,1749722486308.438,-33,43,-164
1749722486347.25,244546,1749722486328.281,-17,39,-154
1749722486367.094,244390,1749722486348.156,-18,38,-161
1749722486386.937,244225,1749722486368.0,-23,35,-150
1749722486406.812,244086,1749722486387.875,-22,39,-162
1749722486426.656,243978,1749722486407.719,-23,41,-159
1749722486446.531,243866,1749722486427.594,-32,40,-169
1749722486466.375,243697,1749722486447.437,-24,41,-161
1749722486486.219,243516,1749722486467.312,-31,39,-162
1749722486506.125,243283,1749722486487.156,-20,39,-164
1749722486525.969,243044,1749722486507.031,-26,40,-169
1749722486545.813,242797,1749722486526.875,-23,43,-157
1749722486565.687,242570,1749722486546.75,-24,45,-161
1749722486585.562,242356,1749722486566.594,-29,40,-164
1749722486605.438,242196,1749722486586.438,-20,41,-164
1749722486625.25,242045,1749722486606.313,-23,40,-160
1749722486645.125,241888,1749722486626.219,-25,38,-161
1749722486665.0,241817,1749722486646.031,-20,47,-144
1749722486684.875,241764,1749722486665.938,-28,44,-162
1749722486704.719,241728,1749722486685.781,-32,40,-160
1749722486724.5942,241754,1749722486705.625,-34,56,-169
1749722486744.469,241854,1749722486725.5,-23,51,-170
1749722486764.313,242106,1749722486745.375,-8,55,-181
1749722486784.188,242523,1749722486765.219,-2,45,-176
1749722486804.031,243226,1749722486785.125,3,57,-201
1749722486823.906,243942,1749722486804.9368,-20,60,-192
1749722486843.75,244475,1749722486824.875,-37,51,-181
1749722486863.594,244817,1749722486844.656,-61,59,-177
1749722486883.469,245000,1749722486864.562,-138,56,-168
1749722486903.344,245199,1749722486884.344,-193,45,-160
1749722486923.219,245298,1749722486904.25,-210,16,-128
1749722486943.0,245397,1749722486924.125,-180,-17,-105
1749722486962.875,245446,1749722486943.906,-188,-33,-94
1749722486982.719,245423,1749722486963.781,-180,-33,-89
1749722487002.594,245450,1749722486983.687,-161,-58,-61
1749722487022.438,245414,1749722487003.5,-180,-61,-31
1749722487042.344,245322,1749722487023.375,-204,-69,-17
1749722487062.187,245160,1749722487043.219,-176,-81,1
1749722487082.031,244698,1749722487063.062,-124,-85,32
1749722487101.875,243821,1749722487082.969,-105,-100,58
1749722487121.75,242811,1749722487102.813,-84,-128,63
1749722487141.625,241910,1749722487122.656,-66,-135,87
1749722487161.437,241196,1749722487142.531,-66,-140,79
1749722487181.312,240511,1749722487162.406,-72,-132,64
1749722487201.188,240052,1749722487182.281,-73,-127,78
1749722487221.063,239829,1749722487202.125,-36,-121,76
1749722487240.906,239811,1749722487222.0,-13,-125,64
1749722487260.75,239966,1749722487241.844,11,-123,47
1749722487280.625,240366,1749722487261.719,9,-136,31
1749722487300.5,241235,1749722487281.531,14,-144,15
1749722487320.375,242584,1749722487301.406,-18,-109,27
1749722487340.281,244316,1749722487321.312,-2,-100,15
1749722487360.094,245968,1749722487341.125,51,-144,48
1749722487379.969,248131,1749722487361.031,71,-164,86
1749722487399.812,250552,1749722487380.875,22,-170,108
1749722487419.687,253035,1749722487400.75,-17,-183,128
1749722487439.531,255301,1749722487420.594,-9,-193,116
1749722487459.406,257356,1749722487440.438,0,-181,100
1749722487479.219,259193,1749722487460.312,13,-191,78
1749722487499.062,260707,1749722487480.156,19,-191,71
1749722487518.937,262062,1749722487500.0,30,-193,70
1749722487538.8132,263345,1749722487519.844,15,-205,55
1749722487558.594,264854,1749722487539.688,39,-200,63
1749722487578.5,266354,1749722487559.531,75,-183,64
1749722487598.344,267356,1749722487579.406,55,-184,55
1749722487618.187,268004,1749722487599.25,29,-185,55
1749722487638.031,268159,1749722487619.094,8,-189,64
1749722487657.906,267997,1749722487638.969,35,-186,70
1749722487677.75,267869,1749722487658.844,39,-180,70
1749722487697.625,267554,1749722487678.688,31,-184,55
1749722487717.469,267032,1749722487698.531,27,-165,39
1749722487737.344,266333,1749722487718.406,32,-166,39
1749722487757.187,265770,1749722487738.281,20,-168,71
1749722487777.188,265263,1749722487758.094,31,-189,115
1749722487796.938,265026,1749722487777.969,49,-192,143
1749722487816.781,265590,1749722487797.844,75,-201,137
1749722487836.625,266905,1749722487817.687,44,-194,96
1749722487856.5,268600,1749722487837.562,1,-194,72
1749722487876.344,270374,1749722487857.406,-36,-202,55
1749722487896.219,272000,1749722487877.313,-15,-208,80
1749722487916.094,273119,1749722487897.156,15,-219,79
1749722487935.969,274040,1749722487917.031,9,-224,78
1749722487955.812,274927,1749722487936.906,-4,-213,57
1749722487975.719,275647,1749722487956.75,71,-193,71
1749722487995.594,276300,1749722487976.625,92,-185,86
1749722488015.469,277223,1749722487996.5,88,-173,64
1749722488035.312,278175,1749722488016.375,39,-168,43
1749722488055.188,279181,1749722488036.25,-1,-180,44
1749722488075.063,279943,1749722488056.125,1,-180,67
1749722488095.031,280436,1749722488075.937,33,-176,88
1749722488114.781,280642,1749722488095.938,32,-184,83
1749722488134.625,280767,1749722488115.688,39,-192,71
1749722488154.5,280608,1749722488135.531,15,-189,64
1749722488174.375,280413,1749722488155.406,14,-181,71
1749722488194.219,280101,1749722488175.281,19,-177,68
1749722488214.094,279805,1749722488195.156,46,-185,86
1749722488233.969,279654,1749722488215.0,39,-185,79
1749722488253.844,279714,1749722488234.875,36,-185,79
1749722488273.6868,279932,1749722488254.75,24,-193,79
1749722488293.563,280317,1749722488274.656,-2,-194,89
1749722488313.406,280750,1749722488294.594,-19,-197,102
1749722488333.312,281126,1749722488314.344,-16,-202,96
1749722488353.125,281513,1749722488334.219,4,-199,86
1749722488373.0,282202,1749722488354.063,22,-196,84
1749722488392.875,283325,1749722488373.906,12,-193,86
1749722488412.75,284792,1749722488393.781,15,-192,79
1749722488432.594,285820,1749722488413.687,19,-199,71
1749722488452.469,286361,1749722488433.531,16,-208,71
1749722488472.344,286513,1749722488453.344,15,-202,83
1749722488492.188,286420,1749722488473.25,28,-199,96
1749722488512.062,286331,1749722488493.094,16,-192,79
1749722488531.906,286242,1749722488513.0,47,-193,71
1749722488551.781,286064,1749722488532.813,51,-168,74
1749722488571.625,285872,1749722488552.656,33,-177,59
1749722488591.5,285768,1749722488572.531,15,-191,49
1749722488611.375,285756,1749722488592.438,-2,-180,64
1749722488631.219,285876,1749722488612.313,8,-184,72
1749722488651.063,286042,1749722488632.156,36,-189,67
1749722488670.937,286184,1749722488652.031,56,-188,66
1749722488690.781,286366,1749722488671.875,63,-180,49
1749722488710.656,286619,1749722488691.719,47,-175,65
1749722488730.5,286776,1749722488711.594,6,-188,73
1749722488750.344,286515,1749722488731.437,31,-191,71
1749722488770.219,286010,1749722488751.281,51,-181,64
1749722488790.062,285785,1749722488771.125,44,-168,71
1749722488809.875,286215,1749722488790.969,16,-168,105
1749722488829.781,286709,1749722488810.844,-64,-178,112
1749722488849.625,286780,1749722488830.719,-112,-177,95
1749722488869.469,286636,1749722488850.531,-50,-168,119
1749722488889.313,286481,1749722488870.375,17,-192,143
1749722488909.188,286654,1749722488890.281,67,-189,143
1749722488929.031,286944,1749722488910.125,62,-185,119
1749722488948.906,286974,1749722488930.0,19,-178,66
1749722488968.75,286868,1749722488949.813,-17,-185,55
1749722488988.594,286679,1749722488969.656,-64,-184,71
1749722489008.469,286390,1749722488989.562,-93,-188,78
1749722489028.344,285983,1749722489009.375,-77,-186,72
1749722489048.156,285415,1749722489029.25,-55,-180,71
1749722489068.0,284718,1749722489049.125,-32,-177,79
1749722489087.875,283919,1749722489068.969,-45,-177,86
1749722489107.719,283157,1749722489088.781,-44,-167,76
1749722489127.594,282306,1749722489108.625,-66,-168,71
1749722489147.469,281566,1749722489128.5,-57,-160,64
1749722489167.281,280833,1749722489148.375,-42,-159,65
1749722489187.156,280211,1749722489168.187,-28,-156,64
1749722489207.0,279740,1749722489188.062,-34,-145,42
1749722489226.8118,279303,1749722489207.906,-49,-144,31
1749722489246.656,278829,1749722489227.781,-56,-141,12
1749722489266.531,278353,1749722489247.5942,-58,-129,-8
1749722489286.406,277853,1749722489267.437,-65,-137,-13
1749722489306.219,277339,1749722489287.312,-58,-131,-25
1749722489326.094,276779,1749722489307.188,-49,-132,-25
1749722489345.969,276209,1749722489327.0,-29,-125,-13
1749722489365.781,275685,1749722489346.844,-13,-121,1
1749722489385.656,275244,1749722489366.687,-42,-109,-9
1749722489405.5,274869,1749722489386.594,-44,-95,-22
1749722489425.344,274840,1749722489406.406,-71,-91,-58
1749722489445.219,274444,1749722489426.25,-169,-93,-128
1749722489465.062,276791,1749722489446.125,-138,-88,-256
1749722489484.906,278144,1749722489466.0,-117,-108,-225
1749722489504.75,279432,1749722489485.813,19,-144,-1
1749722489524.625,278416,1749722489505.656,99,-249,192
1749722489544.438,286839,1749722489525.531,-368,-354,-369
1749722489564.312,294595,1749722489545.375,-212,-58,-402
1749722489584.156,292422,1749722489565.187,209,-10,47
1749722489604.0,288581,1749722489585.063,115,143,128
1749722489623.875,290624,1749722489604.906,-301,244,-41
1749722489643.687,293762,1749722489624.844,-353,118,-49
1749722489663.531,294040,1749722489644.594,-173,30,-1
1749722489683.406,294750,1749722489664.438,-159,-40,-41
1749722489703.219,295885,1749722489684.313,-122,-70,-109
1749722489723.094,296216,1749722489704.156,-61,-71,-138
1749722489742.937,295570,1749722489724.0,-2,-57,-113
1749722489762.812,294321,1749722489743.844,3,-64,-64
1749722489782.625,293269,1749722489763.719,-73,-66,-57
1749722489802.5,292368,1749722489783.563,-132,-47,-64
1749722489822.344,291287,1749722489803.406,-128,-19,-76
1749722489842.219,290038,1749722489823.25,-150,-4,-98
1749722489862.062,288833,1749722489843.156,-151,12,-101
1749722489881.906,287721,1749722489863.0,-136,30,-90
1749722489901.781,286656,1749722489882.844,-113,28,-75
1749722489921.625,285839,1749722489902.687,-157,28,-90
1749722489941.469,285197,1749722489922.563,-162,40,-117
1749722489961.344,284509,1749722489942.438,-149,40,-118
1749722489981.188,283616,1749722489962.25,-130,39,-128
1749722490001.094,282804,1749722489982.125,-125,28,-146
1749722490020.906,282001,1749722490001.969,-129,22,-177
1749722490040.781,281158,1749722490021.875,-141,28,-192
1749722490060.625,279868,1749722490041.75,-86,30,-186
1749722490080.5308,278726,1749722490061.562,24,35,-181
1749722490100.312,277753,1749722490081.437,7,38,-169
1749722490120.187,276829,1749722490101.281,32,47,-158
1749722490140.063,275818,1749722490121.125,39,49,-152
1749722490159.906,274944,1749722490140.969,-1,35,-138
1749722490179.75,274040,1749722490160.812,-58,40,-145
1749722490199.594,273179,1749722490180.687,-94,45,-145
1749722490219.469,272348,1749722490200.531,-129,41,-153
1749722490239.344,271482,1749722490220.375,-103,39,-145
1749722490259.219,270688,1749722490240.2192,-80,56,-144
1749722490279.0,269933,1749722490260.094,-58,43,-136
1749722490298.875,269131,1749722490279.938,-52,51,-128
1749722490318.719,268380,1749722490299.781,-47,52,-141
1749722490338.563,267614,1749722490319.625,-61,51,-152
1749722490358.437,266707,1749722490339.469,-57,55,-144
1749722490378.281,265441,1749722490359.375,-59,48,-145
1749722490398.1882,263917,1749722490379.188,-72,49,-145
1749722490418.031,262269,1749722490399.094,-72,51,-141
1749722490437.875,260643,1749722490418.969,-68,51,-141
1749722490457.719,259005,1749722490438.781,-49,52,-148
1749722490477.625,257560,1749722490458.656,-63,44,-153
1749722490497.469,256278,1749722490478.5308,-61,48,-146
1749722490517.344,255170,1749722490498.375,-53,54,-146
1749722490537.25,254208,1749722490518.219,-56,44,-145
1749722490557.062,253352,1749722490538.156,-62,40,-153
1749722490576.906,252605,1749722490557.969,-56,46,-143
1749722490596.781,251913,1749722490577.875,-52,48,-145
1749722490616.625,251312,1749722490597.687,-65,63,-147
1749722490636.531,250723,1749722490617.563,-52,48,-145
1749722490656.344,250066,1749722490637.469,-57,46,-145
1749722490676.219,249415,1749722490657.312,-68,39,-122
1749722490696.094,248727,1749722490677.156,-68,43,-139
1749722490715.969,248036,1749722490697.0,-58,43,-146
1749722490735.813,247339,1749722490716.906,-63,48,-145
1749722490755.688,246697,1749722490736.719,-56,47,-145
1749722490775.531,246115,1749722490756.594,-55,44,-138
1749722490795.406,245581,1749722490776.469,-68,48,-140
1749722490815.281,245110,1749722490796.344,-68,44,-138
1749722490835.125,244714,1749722490816.219,-60,47,-145
1749722490855.0,244346,1749722490836.031,-62,45,-145
1749722490874.844,243965,1749722490855.906,-55,47,-145
1749722490894.687,243729,1749722490875.75,-57,48,-151
1749722490914.563,243460,1749722490895.594,-58,39,-145
1749722490934.406,243164,1749722490915.469,-56,45,-145
1749722490954.281,242966,1749722490935.312,-61,49,-141
1749722490974.125,242760,1749722490955.188,-58,48,-143
1749722490994.094,242544,1749722490975.063,-66,46,-138
1749722491013.844,242373,1749722490994.906,-68,48,-137
1749722491033.719,242146,1749722491014.75,-66,49,-145
1749722491053.531,242043,1749722491034.625,-65,48,-134
1749722491073.406,241881,1749722491054.469,-68,48,-136
1749722491093.25,241726,1749722491074.313,-69,48,-145
1749722491113.125,241565,1749722491094.187,-56,48,-145
1749722491132.969,241426,1749722491114.062,-53,48,-148
1749722491152.844,241302,1749722491133.906,-56,48,-142
1749722491172.688,241171,1749722491153.75,-58,48,-141
1749722491192.563,241059,1749722491173.594,-55,48,-138
1749722491212.406,240973,1749722491193.5,-61,46,-141
1749722491232.219,240898,1749722491213.375,-61,50,-145
1749722491252.094,240770,1749722491233.125,-55,47,-145
1749722491271.969,240376,1749722491253.0,-62,47,-145
1749722491291.75,239682,1749722491272.875,-65,45,-145
1749722491311.625,238740,1749722491292.687,-56,53,-145
1749722491331.469,237713,1749722491312.531,-65,54,-145
1749722491351.344,236725,1749722491332.406,-64,43,-137
1749722491371.188,235784,1749722491352.281,-68,50,-145
1749722491391.062,235070,1749722491372.125,-58,48,-153
1749722491410.937,234482,1749722491391.969,-61,48,-161
1749722491430.781,233998,1749722491411.844,-64,48,-146
1749722491450.625,233745,1749722491431.688,-53,54,-145
1749722491470.5,233502,1749722491451.562,-61,47,-150
1749722491490.375,233310,1749722491471.437,-64,47,-138
1749722491510.25,233196,1749722491491.281,-64,48,-145
1749722491530.063,233131,1749722491511.188,-68,47,-149
1749722491549.937,233003,1749722491531.0,-57,50,-145
1749722491569.812,232819,1749722491550.875,-57,48,-145
1749722491589.688,232611,1749722491570.719,-65,48,-141
1749722491609.531,232351,1749722491590.594,-59,45,-128
1749722491629.375,232097,1749722491610.469,-48,44,-145
1749722491649.219,231855,1749722491630.281,-61,47,-136
1749722491669.125,231594,1749722491650.156,-61,44,-145
1749722491688.938,231420,1749722491670.031,-73,63,-148
1749722491708.813,231245,1749722491689.875,-63,44,-145
1749722491728.656,231109,1749722491709.719,-57,44,-145
1749722491748.531,230995,1749722491729.562,-71,43,-121
1749722491768.344,230878,1749722491749.469,-60,54,-145
1749722491788.188,230830,1749722491769.281,-64,51,-145
1749722491808.063,230736,1749722491789.125,-66,51,-145
1749722491827.9368,230680,1749722491808.937,-79,51,-137
1749722491847.719,230619,1749722491828.844,-72,51,-128
1749722491867.594,230571,1749722491848.688,-57,49,-141
1749722491887.469,230544,1749722491868.5,-59,51,-141
1749722491907.312,230528,1749722491888.375,-73,53,-138
1749722491927.156,230552,1749722491908.187,-71,48,-146
1749722491947.0,230501,1749722491928.063,-60,44,-153
1749722491966.844,230531,1749722491948.0,-55,46,-146
1749722491986.719,230513,1749722491967.781,-64,44,-135
1749722492006.531,230532,1749722491987.656,-61,46,-145
1749722492026.375,230527,1749722492007.5,-57,41,-146
1749722492046.25,230539,1749722492027.344,-63,41,-138
1749722492066.125,230527,1749722492047.188,-72,44,-128
1749722492085.938,230543,1749722492066.969,-65,43,-133
1749722492105.812,230562,1749722492086.937,-60,43,-145
1749722492125.656,230599,1749722492106.75,-72,48,-145
1749722492145.531,230606,1749722492126.563,-66,50,-145
1749722492165.344,230632,1749722492146.4692,-68,48,-139
1749722492185.25,230644,1749722492166.281,-61,41,-141
1749722492205.062,230686,1749722492186.188,-64,54,-141
1749722492224.938,230664,1749722492205.969,-58,48,-142
1749722492244.781,230425,1749722492225.844,-64,46,-141
1749722492264.594,229937,1749722492245.687,-66,48,-145
1749722492284.469,229275,1749722492265.5,-61,47,-153
1749722492304.281,228584,1749722492285.375,-64,44,-138
1749722492324.156,227923,1749722492305.219,-79,44,-143
1749722492344.0,227331,1749722492325.063,-72,47,-138
1749722492363.844,226894,1749722492344.937,-68,40,-138
1749722492383.719,226561,1749722492364.75,-72,44,-141
1749722492403.563,226342,1749722492384.625,-64,40,-145
1749722492423.375,226217,1749722492404.469,-64,47,-121
1749722492443.406,226086,1749722492424.375,-64,43,-138
1749722492463.094,226067,1749722492444.187,-73,55,-137
1749722492482.969,226038,1749722492464.031,-69,44,-145
1749722492502.844,226046,1749722492483.906,-58,44,-128
1749722492522.688,226051,1749722492503.781,-74,44,-128
1749722492542.562,225947,1749722492523.625,-77,44,-141
1749722492562.437,225852,1749722492543.469,-57,44,-140
1749722492582.281,225698,1749722492563.375,-64,44,-141
1749722492602.156,225489,1749722492583.188,-63,40,-145
1749722492622.031,225263,1749722492603.062,-61,44,-145
1749722492641.906,225130,1749722492622.969,-57,41,-141
1749722492661.75,224961,1749722492642.813,-64,39,-138
1749722492681.625,224775,1749722492662.688,-76,40,-128
1749722492701.5,224709,1749722492682.531,-81,51,-138
1749722492721.344,224671,1749722492702.406,-72,47,-128
1749722492741.281,224583,1749722492722.281,-71,48,-136
1749722492761.063,224579,1749722492742.125,-70,43,-136
1749722492780.937,224545,1749722492761.969,-69,48,-145
1749722492800.781,224530,1749722492781.875,-72,48,-138
1749722492820.656,224528,1749722492801.719,-61,40,-153
1749722492840.531,224504,1749722492821.563,-60,46,-141
1749722492860.406,224493,1749722492841.437,-72,46,-145
1749722492880.25,224501,1749722492861.312,-72,48,-146
1749722492900.125,224479,1749722492881.219,-72,46,-128
1749722492920.0,224470,1749722492901.063,-69,51,-128
1749722492939.875,224458,1749722492920.969,-69,47,-137
1749722492959.719,224449,1749722492940.781,-66,48,-136
1749722492979.594,224433,1749722492960.656,-73,48,-145
1749722492999.438,224434,1749722492980.469,-63,44,-144
1749722493019.344,224414,1749722493000.375,-68,49,-128
1749722493039.219,224417,1749722493020.219,-64,49,-138
1749722493059.031,224436,1749722493040.094,-69,48,-136
1749722493078.875,224431,1749722493059.906,-61,44,-141
1749722493098.75,224491,1749722493079.75,-49,51,-141
1749722493118.594,224510,1749722493099.656,-68,51,-128
1749722493138.437,224440,1749722493119.5,-52,41,-136
1749722493158.313,224173,1749722493139.344,-63,44,-117
1749722493178.219,223723,1749722493159.219,-72,51,-128
1749722493198.0,223317,1749722493179.094,-63,60,-144
1749722493217.875,222840,1749722493198.937,-64,41,-145
1749722493237.719,222378,1749722493218.75,-71,46,-141
1749722493257.594,221979,1749722493238.656,-64,44,-128
1749722493277.406,221701,1749722493258.531,-68,48,-137
1749722493297.281,221468,1749722493278.375,-68,51,-138
1749722493317.156,221344,1749722493298.187,-62,44,-141
1749722493337.031,221251,1749722493318.063,-79,47,-141
1749722493356.875,221209,1749722493337.938,-63,44,-140
1749722493376.719,221202,1749722493357.781,-68,40,-141
1749722493396.594,221243,1749722493377.625,-77,35,-145
1749722493416.469,221238,1749722493397.5,-62,44,-128
1749722493436.281,221251,1749722493417.375,-63,38,-138
1749722493456.156,221202,1749722493437.187,-64,48,-141
1749722493476.156,221094,1749722493457.062,-71,46,-138
1749722493495.906,221001,1749722493476.938,-68,48,-145
1749722493515.719,220854,1749722493496.813,-72,46,-141
1749722493535.625,220724,1749722493516.687,-69,46,-138
1749722493555.469,220634,1749722493536.5,-74,49,-143
1749722493575.344,220546,1749722493556.375,-76,48,-128
1749722493595.156,220476,1749722493576.25,-68,46,-145
1749722493615.063,220473,1749722493596.125,-61,46,-143
1749722493634.906,220445,1749722493615.937,-74,48,-138
1749722493654.781,220439,1749722493635.844,-65,47,-138
1749722493674.625,220461,1749722493655.719,-58,48,-142
1749722493694.5,220488,1749722493675.594,-68,44,-142
1749722493714.375,220503,1749722493695.437,-74,48,-128
1749722493734.25,220517,1749722493715.281,-68,51,-140
1749722493754.125,220564,1749722493735.156,-76,46,-141
1749722493773.938,220585,1749722493755.063,-72,44,-138
1749722493793.813,220580,1749722493774.875,-64,47,-136
1749722493813.656,220597,1749722493794.75,-61,48,-128
1749722493833.5,220644,1749722493814.594,-81,56,-138
1749722493853.406,220655,1749722493834.469,-77,46,-138
1749722493873.281,220709,1749722493854.281,-72,48,-141
1749722493893.125,220740,1749722493874.125,-65,41,-120
1749722493912.969,220781,1749722493894.094,-63,44,-136
1749722493932.813,220834,1749722493913.906,-57,39,-137
1749722493952.688,220719,1749722493933.75,-79,44,-137
1749722493972.562,220357,1749722493953.594,-80,44,-128
1749722493992.406,219877,1749722493973.469,-74,48,-141
1749722494012.25,219326,1749722493993.375,-73,46,-138
1749722494032.125,218798,1749722494013.156,-72,44,-128
1749722494051.969,218297,1749722494033.062,-72,44,-128
1749722494071.844,217929,1749722494052.906,-72,44,-142
1749722494091.719,217597,1749722494072.781,-66,46,-138
1749722494111.563,217433,1749722494092.625,-61,44,-128
1749722494131.438,217316,1749722494112.5,-61,40,-142
1749722494151.281,217261,1749722494132.375,-76,46,-128
1749722494171.125,217202,1749722494152.219,-64,46,-145
1749722494191.0,217209,1749722494172.031,-72,50,-128
1749722494210.875,217203,1749722494191.906,-65,46,-128
1749722494230.687,217183,1749722494211.75,-66,56,-128
1749722494250.562,217077,1749722494231.625,-64,47,-128
1749722494270.406,216967,1749722494251.469,-65,46,-137
1749722494290.313,216807,1749722494271.344,-61,47,-132
1749722494310.125,216618,1749722494291.219,-75,47,-128
1749722494329.969,216452,1749722494311.062,-79,47,-128
1749722494349.844,216290,1749722494330.969,-80,49,-128
1749722494369.719,216087,1749722494350.781,-77,48,-138
1749722494389.531,216061,1749722494370.625,-80,49,-138
1749722494409.406,215986,1749722494390.469,-65,40,-128
1749722494429.25,215878,1749722494410.312,-61,47,-128
1749722494449.125,215931,1749722494430.188,-72,48,-136
1749722494468.969,215887,1749722494450.031,-71,51,-138
1749722494488.844,215834,1749722494469.906,-61,43,-138
1749722494508.687,215859,1749722494489.75,-77,48,-136
1749722494528.563,215851,1749722494509.563,-65,48,-141
1749722494548.438,215819,1749722494529.5,-68,48,-137
1749722494568.25,215846,1749722494549.344,-72,47,-144
1749722494588.125,215853,1749722494569.156,-68,41,-128
1749722494607.937,215839,1749722494589.031,-68,47,-128
1749722494627.813,215842,1749722494608.875,-76,46,-152
1749722494647.656,215837,1749722494628.75,-63,48,-128
1749722494667.5,215831,1749722494648.562,-72,47,-138
1749722494687.375,215849,1749722494668.437,-64,44,-145
1749722494707.219,215855,1749722494688.313,-61,46,-128
1749722494727.063,215871,1749722494708.156,-72,47,-128
1749722494746.938,215887,1749722494727.969,-58,43,-138
1749722494766.844,215874,1749722494747.844,-64,44,-128
1749722494786.656,215738,1749722494767.75,-64,46,-145
1749722494806.531,215377,1749722494787.594,-64,51,-138
1749722494826.437,214869,1749722494807.437,-64,44,-128
1749722494846.25,214326,1749722494827.344,-68,41,-128
1749722494866.094,213814,1749722494847.156,-77,43,-133
1749722494885.969,213356,1749722494867.063,-69,44,-141
1749722494905.813,213060,1749722494886.875,-65,62,-145
1749722494925.719,212827,1749722494906.687,-69,47,-128
1749722494945.5618,212660,1749722494926.625,-77,44,-128
1749722494965.406,212555,1749722494946.438,-71,43,-124
1749722494985.281,212461,1749722494966.375,-65,50,-138
1749722495005.125,212415,1749722494986.187,-66,39,-128
1749722495024.969,212387,1749722495006.031,-73,40,-128
1749722495044.844,212374,1749722495025.875,-71,46,-138
1749722495064.719,212323,1749722495045.75,-69,43,-138
1749722495084.563,212240,1749722495065.625,-74,44,-141
1749722495104.375,212097,1749722495085.469,-66,45,-138
1749722495124.219,211970,1749722495105.313,-77,43,-128
1749722495144.125,211778,1749722495125.156,-66,39,-138
1749722495163.969,211614,1749722495145.031,-64,39,-138
1749722495183.844,211476,1749722495164.906,-63,40,-128
1749722495203.687,211383,1749722495184.75,-64,40,-136
1749722495223.531,211279,1749722495204.594,-68,40,-128
1749722495243.375,211229,1749722495224.438,-64,40,-128
1749722495263.25,211189,1749722495244.312,-70,46,-145
1749722495283.094,211146,1749722495264.187,-77,44,-138
1749722495302.937,211119,1749722495284.0,-74,49,-128
1749722495322.813,211077,1749722495303.875,-65,46,-145
1749722495342.625,211061,1749722495323.75,-69,44,-142
1749722495362.5,211032,1749722495343.5618,-63,44,-136
1749722495382.406,210963,1749722495363.406,-64,43,-128
1749722495402.188,210958,1749722495383.281,-63,60,-136
1749722495422.0632,210908,1749722495403.125,-69,44,-138
1749722495441.937,210874,1749722495423.0,-68,48,-138
1749722495461.781,210832,1749722495442.844,-68,48,-145
1749722495481.656,210799,1749722495462.688,-73,43,-145
1749722495501.469,210772,1749722495482.563,-79,44,-128
1749722495521.313,210735,1749722495502.4058,-76,46,-128
1749722495541.187,210707,1749722495522.25,-65,49,-140
1749722495561.062,210638,1749722495542.094,-70,46,-139
1749722495580.906,210650,1749722495561.969,-64,45,-137
1749722495600.781,210657,1749722495581.844,-69,44,-128
1749722495620.625,210643,1749722495601.625,-66,40,-138
1749722495640.5,210649,1749722495621.562,-71,39,-141
1749722495660.312,210625,1749722495641.375,-72,48,-145
1749722495680.188,210595,1749722495661.219,-64,44,-141
1749722495700.031,210348,1749722495681.094,-68,44,-136
1749722495719.906,209936,1749722495700.937,-76,47,-145
1749722495739.719,209427,1749722495720.781,-64,40,-137
1749722495759.625,208898,1749722495740.688,-77,46,-136
1749722495779.469,208394,1749722495760.5,-61,41,-143
1749722495799.344,208002,1749722495780.375,-64,40,-145
1749722495819.156,207690,1749722495800.25,-64,46,-128
1749722495839.063,207457,1749722495820.094,-64,43,-128
1749722495858.906,207297,1749722495839.969,-68,47,-128
1749722495878.781,207203,1749722495859.812,-72,44,-137
1749722495898.625,207100,1749722495879.687,-64,41,-137
1749722495918.469,207073,1749722495899.531,-61,41,-138
1749722495938.344,207006,1749722495919.406,-64,47,-136
1749722495958.219,206956,1749722495939.281,-63,44,-135
1749722495978.031,206868,1749722495959.125,-77,49,-145
1749722495997.906,206735,1749722495978.969,-71,44,-141
1749722496017.781,206575,1749722495998.844,-73,44,-128
1749722496037.656,206423,1749722496018.687,-72,39,-132
1749722496057.5,206201,1749722496038.531,-67,44,-141
1749722496077.344,206048,1749722496058.469,-73,48,-138
1749722496097.219,205894,1749722496078.25,-64,47,-149
1749722496117.094,205729,1749722496098.125,-66,44,-137
1749722496137.0,205677,1749722496118.094,-64,56,-161
1749722496156.812,205592,1749722496137.938,-74,47,-128
1749722496176.656,205502,1749722496157.75,-69,47,-138
1749722496196.531,205509,1749722496177.625,-60,44,-138
1749722496216.3442,205452,1749722496197.406,-66,44,-144
1749722496236.219,205427,1749722496217.312,-68,46,-138
1749722496256.125,205393,1749722496237.156,-56,48,-137
1749722496275.969,205361,1749722496257.0,-72,44,-135
1749722496295.781,205342,1749722496276.875,-66,39,-137
1749722496315.656,205353,1749722496296.719,-58,44,-138
1749722496335.531,205307,1749722496316.562,-68,47,-141
1749722496355.438,205270,1749722496336.438,-72,51,-145
1749722496375.25,205246,1749722496356.313,-76,52,-141
1749722496395.125,205222,1749722496376.187,-68,44,-145
1749722496414.969,205213,1749722496396.031,-74,44,-128
1749722496434.844,205189,1749722496415.875,-71,44,-122
1749722496454.688,205183,1749722496435.75,-64,39,-145
1749722496474.531,205139,1749722496455.625,-66,44,-128
1749722496494.406,205158,1749722496475.563,-65,43,-145
1749722496514.281,205147,1749722496495.281,-65,44,-128
1749722496534.094,205135,1749722496515.188,-64,41,-145
1749722496553.969,205165,1749722496535.031,-66,42,-145
1749722496573.812,205131,1749722496554.875,-64,44,-139
1749722496593.687,205171,1749722496574.75,-63,43,-136
1749722496613.531,205197,1749722496594.594,-74,47,-128
1749722496633.375,205179,1749722496614.469,-60,44,-128
1749722496653.25,205029,1749722496634.312,-73,39,-138
1749722496673.125,204676,1749722496654.187,-72,44,-141
1749722496693.031,204300,1749722496674.031,-72,56,-128
1749722496712.813,203864,1749722496693.906,-68,31,-132
1749722496732.687,203423,1749722496713.719,-69,46,-140
1749722496752.562,203084,1749722496733.594,-68,45,-143
1749722496772.344,202795,1749722496753.438,-64,46,-153
1749722496792.219,202633,1749722496773.313,-63,44,-141
1749722496812.094,202553,1749722496793.156,-64,44,-141
1749722496831.937,202500,1749722496813.0,-65,40,-138
1749722496851.781,202501,1749722496832.812,-64,43,-138
1749722496871.625,202526,1749722496852.719,-71,44,-138
1749722496891.469,202570,1749722496872.531,-63,45,-138
1749722496911.375,202616,1749722496892.375,-64,41,-145
1749722496931.156,202623,1749722496912.281,-71,44,-138
1749722496951.031,202589,1749722496932.094,-77,48,-128
1749722496970.875,202521,1749722496951.938,-74,46,-137
1749722496990.719,202452,1749722496971.781,-68,36,-141
1749722497010.562,202363,1749722496991.625,-66,45,-145
1749722497030.469,202255,1749722497011.531,-66,40,-128
1749722497050.281,202205,1749722497031.344,-72,47,-136
1749722497070.156,202159,1749722497051.219,-67,44,-128
1749722497089.969,202110,1749722497071.062,-65,44,-128
1749722497109.844,202104,1749722497090.937,-65,40,-145
1749722497129.687,202102,1749722497110.75,-73,43,-137
1749722497149.563,202140,1749722497130.594,-73,43,-140
1749722497169.375,202157,1749722497150.469,-65,43,-145
1749722497189.25,202220,1749722497170.344,-65,48,-141
1749722497209.125,202237,1749722497190.156,-64,48,-141
1749722497229.0,202229,1749722497210.0,-57,47,-128
1749722497248.844,202293,1749722497229.906,-64,36,-138
1749722497268.656,202308,1749722497249.75,-68,41,-141
1749722497288.531,202330,1749722497269.594,-77,47,-128
1749722497308.406,202289,1749722497289.469,-77,44,-141
1749722497328.219,202348,1749722497309.281,-49,44,-137
1749722497348.094,202365,1749722497329.156,-74,44,-144
1749722497367.937,202380,1749722497349.0,-72,44,-141
1749722497387.781,202422,1749722497368.844,-73,29,-128
1749722497407.625,202395,1749722497388.719,-68,46,-138
1749722497427.469,202453,1749722497408.531,-64,40,-141
1749722497447.313,202477,1749722497428.375,-73,40,-132
1749722497467.187,202512,1749722497448.219,-64,44,-138
1749722497487.0,202537,1749722497468.094,-63,45,-137
1749722497506.875,202567,1749722497487.969,-71,39,-128
1749722497526.719,202580,1749722497507.781,-72,41,-139
1749722497546.562,202604,1749722497527.656,-77,43,-128
1749722497566.406,202642,1749722497547.469,-68,49,-138
1749722497586.281,202676,1749722497567.344,-75,44,-138
1749722497606.094,202710,1749722497587.219,-66,48,-145
1749722497625.969,202747,1749722497607.0,-65,49,-141
1749722497645.812,202780,1749722497626.875,-65,44,-145
1749722497665.625,202824,1749722497646.719,-69,43,-141
1749722497685.5,202863,1749722497666.594,-64,44,-135
1749722497705.344,202866,1749722497686.438,-77,44,-137
1749722497725.188,202747,1749722497706.25,-72,31,-141
1749722497745.031,202460,1749722497726.094,-77,46,-137
1749722497764.844,202083,1749722497745.938,-72,51,-128
1749722497784.719,201675,1749722497765.719,-68,44,-128
1749722497804.563,201243,1749722497785.656,-66,43,-139
1749722497824.375,200967,1749722497805.5,-68,46,-132
1749722497844.25,200743,1749722497825.344,-66,43,-141
1749722497864.156,200582,1749722497845.156,-65,44,-128
1749722497883.938,200573,1749722497865.063,-66,46,-136
1749722497903.781,200572,1749722497884.813,-65,39,-128
1749722497923.656,200558,1749722497904.719,-65,44,-128
1749722497943.469,200674,1749722497924.531,-72,46,-134
1749722497963.312,200747,1749722497944.375,-72,44,-145
1749722497983.156,200817,1749722497964.219,-72,44,-143
1749722498003.0,200860,1749722497984.094,-81,43,-137
1749722498022.844,200876,1749722498003.906,-64,46,-141
1749722498042.813,200839,1749722498023.781,-68,41,-128
1749722498062.531,200794,1749722498043.656,-64,31,-132
1749722498082.406,200709,1749722498063.469,-74,44,-128
1749722498102.25,200649,1749722498083.312,-66,40,-128
1749722498122.125,200569,1749722498103.156,-66,44,-128
1749722498141.937,200541,1749722498123.031,-71,46,-137
1749722498161.781,200502,1749722498142.875,-69,44,-144
1749722498181.6558,200514,1749722498162.75,-65,44,-141
1749722498201.531,200517,1749722498182.562,-62,40,-141
1749722498221.344,200557,1749722498202.437,-76,44,-128
1749722498241.219,200601,1749722498222.281,-63,41,-141
1749722498261.125,200647,1749722498242.156,-66,44,-138
1749722498280.937,200703,1749722498262.031,-68,46,-141
1749722498300.781,200760,1749722498281.875,-77,44,-128
1749722498320.625,200769,1749722498301.75,-65,44,-138
1749722498340.5,200847,1749722498321.594,-73,45,-141
1749722498360.375,200906,1749722498341.406,-72,46,-144
1749722498380.219,200924,1749722498361.312,-74,44,-145
1749722498400.062,200963,1749722498381.125,-72,31,-141
1749722498419.938,200934,1749722498401.0,-68,46,-128
1749722498439.781,201034,1749722498420.844,-68,44,-146
1749722498459.625,201055,1749722498440.687,-73,48,-145
1749722498479.469,201078,1749722498460.562,-76,44,-141
1749722498499.344,201096,1749722498480.406,-73,41,-128
1749722498519.188,201140,1749722498500.25,-63,43,-138
1749722498539.062,201202,1749722498520.094,-71,44,-138
1749722498558.875,201274,1749722498539.969,-68,48,-138
1749722498578.75,201333,1749722498559.844,-72,46,-140
1749722498598.625,201477,1749722498579.688,-64,40,-138
1749722498618.469,201654,1749722498599.531,-74,47,-128
1749722498638.281,201914,1749722498619.375,-71,53,-145
1749722498658.156,202366,1749722498639.219,-72,49,-142
1749722498678.0,203047,1749722498659.094,-52,49,-145
1749722498697.875,203975,1749722498678.938,-66,51,-152
1749722498717.719,204999,1749722498698.781,-64,51,-146
1749722498737.562,205976,1749722498718.656,-73,58,-153
1749722498757.437,206711,1749722498738.5,-69,51,-146
1749722498777.281,206972,1749722498758.313,-80,44,-125
1749722498797.125,206941,1749722498778.219,-98,31,-96
1749722498817.0,207008,1749722498798.062,-117,39,-121
1749722498836.812,207503,1749722498817.906,-153,41,-126
1749722498856.688,208331,1749722498837.75,-177,49,-128
1749722498876.531,209375,1749722498857.625,-170,40,-121
1749722498896.406,210559,1749722498877.5,-165,48,-128
1749722498916.281,211714,1749722498897.312,-152,43,-128
1749722498936.125,212621,1749722498917.156,-114,30,-121
1749722498955.969,213223,1749722498937.063,-116,44,-121
1749722498975.844,213646,1749722498956.906,-128,39,-124
1749722498995.687,213993,1749722498976.719,-125,30,-125
1749722499015.531,214326,1749722498996.594,-112,27,-121
1749722499035.375,214547,1749722499016.438,-98,24,-112
1749722499055.219,214639,1749722499036.344,-103,15,-110
1749722499075.094,214788,1749722499056.156,-97,15,-114
1749722499094.969,214968,1749722499076.0,-84,3,-106
1749722499114.781,215125,1749722499095.875,-65,1,-96
1749722499134.656,215314,1749722499115.719,-65,1,-89
1749722499154.594,215534,1749722499135.594,-69,-2,-113
1749722499174.375,216010,1749722499155.437,-88,3,-104
1749722499194.187,216669,1749722499175.25,-77,-16,-105
1749722499214.094,217491,1749722499195.125,-68,-20,-96
1749722499233.969,218558,1749722499214.969,-63,-17,-96
1749722499253.781,219912,1749722499234.906,-62,-12,-104
1749722499273.656,221311,1749722499254.719,-33,-21,-113
1749722499293.5,222738,1749722499274.594,-26,-20,-114
1749722499313.375,224248,1749722499294.406,-32,-25,-122
1749722499333.25,225615,1749722499314.312,-39,-28,-114
1749722499353.062,226607,1749722499334.156,-38,-27,-113
1749722499372.937,227011,1749722499353.969,-20,-30,-120
1749722499392.781,226776,1749722499373.844,-10,-32,-127
1749722499412.656,226331,1749722499393.687,8,-26,-127
1749722499432.5,225892,1749722499413.594,-4,-24,-128
1749722499452.344,225518,1749722499433.438,-1,-26,-127
1749722499472.219,225242,1749722499453.25,4,-20,-125
1749722499492.094,225046,1749722499473.156,10,-28,-127
1749722499511.906,224955,1749722499493.0,25,-23,-128
1749722499531.812,224965,1749722499512.875,17,-32,-144
1749722499551.656,225380,1749722499532.719,-42,-47,-170
1749722499571.531,226008,1749722499552.563,-103,-40,-177
1749722499591.375,226721,1749722499572.5,-106,-32,-185
1749722499611.219,227461,1749722499592.281,-87,-45,-185
1749722499631.062,228142,1749722499612.125,-49,-50,-169
1749722499650.938,228653,1749722499632.0,-32,-52,-157
1749722499670.781,229139,1749722499651.844,-48,-53,-157
1749722499690.625,229815,1749722499671.719,-60,-50,-160
1749722499710.5,230561,1749722499691.531,-63,-65,-159
1749722499730.375,231449,1749722499711.375,-60,-55,-159
1749722499750.1882,232382,1749722499731.25,-65,-61,-157
1749722499770.094,233359,1749722499751.094,-49,-59,-161
1749722499789.937,234338,1749722499771.0,-53,-58,-153
1749722499809.813,235313,1749722499790.875,-72,-67,-140
1749722499829.656,236138,1749722499810.719,-76,-57,-126
1749722499849.5,236722,1749722499830.625,-79,-61,-122
1749722499869.375,237161,1749722499850.437,-64,-64,-129
1749722499889.25,237726,1749722499870.281,-52,-53,-113
1749722499909.063,238495,1749722499890.156,-52,-55,-103
1749722499928.938,239326,1749722499910.0,-61,-55,-102
1749722499948.812,240156,1749722499929.844,-52,-57,-109
1749722499968.656,240864,1749722499949.719,-45,-49,-116
1749722499988.531,241486,1749722499969.563,-40,-36,-128
1749722500008.406,242073,1749722499989.5,-40,-38,-128
1749722500028.281,242851,1749722500009.406,-44,-34,-121
1749722500048.156,243638,1749722500029.187,-32,-49,-101
1749722500068.0,244384,1749722500049.063,-26,-45,-79
1749722500087.938,245278,1749722500068.938,-9,-36,-87
1749722500107.719,246048,1749722500088.75,-42,-26,-104
1749722500127.594,246757,1749722500108.656,-95,-11,-121
1749722500147.438,247641,1749722500128.5,-49,0,-121
1749722500167.313,248559,1749722500148.375,-15,-4,-98
1749722500187.156,249516,1749722500168.219,-1,-7,-90
1749722500207.031,250546,1749722500188.062,-71,13,-113
1749722500226.844,251563,1749722500207.969,-116,25,-126
1749722500246.688,252620,1749722500227.781,-84,29,-128
1749722500266.563,253605,1749722500247.5942,-49,26,-129
1749722500286.437,254528,1749722500267.469,-64,20,-121
1749722500306.25,255373,1749722500287.344,-113,39,-137
1749722500326.094,256108,1749722500307.188,-121,51,-153
1749722500345.969,256718,1749722500327.031,-100,51,-141
1749722500365.813,257202,1749722500346.875,-81,53,-128
1749722500385.656,257715,1749722500366.719,-103,57,-116
1749722500405.531,258279,1749722500386.625,-116,70,-113
1749722500425.375,259158,1749722500406.406,-141,64,-128
1749722500445.25,260283,1749722500426.281,-159,48,-146
1749722500465.094,261372,1749722500446.125,-134,63,-164
1749722500484.969,262449,1749722500466.031,-128,67,-180
1749722500504.813,263373,1749722500485.875,-115,62,-177
1749722500524.656,264111,1749722500505.719,-81,57,-161
1749722500544.5,264748,1749722500525.562,-64,64,-161
1749722500564.375,265229,1749722500545.437,-47,46,-160
1749722500584.219,265679,1749722500565.281,-42,40,-160
1749722500604.063,265942,1749722500585.125,-37,39,-152
1749722500623.938,266104,1749722500605.0,-40,31,-145
1749722500643.781,266337,1749722500624.875,-56,25,-128
1749722500663.656,266718,1749722500644.687,-84,19,-125
1749722500683.531,267144,1749722500664.563,-101,15,-121
1749722500703.344,267664,1749722500684.438,-111,7,-121
1749722500723.219,268006,1749722500704.281,-100,4,-120
1749722500743.062,268073,1749722500724.125,-98,7,-121
1749722500762.938,267955,1749722500743.969,-87,9,-121
1749722500782.75,267666,1749722500763.844,-80,15,-126
1749722500802.625,267233,1749722500783.719,-71,24,-128
1749722500822.469,266926,1749722500803.531,-73,26,-137
1749722500842.375,266599,1749722500823.406,-72,28,-128
1749722500862.188,266339,1749722500843.281,-74,31,-128
1749722500882.063,266191,1749722500863.156,-84,23,-137
1749722500901.906,266073,1749722500882.969,-80,31,-138
1749722500921.781,265998,1749722500902.812,-89,24,-127
1749722500941.594,266034,1749722500922.688,-84,24,-153
1749722500961.469,266079,1749722500942.563,-80,19,-126
1749722500981.344,266147,1749722500962.375,-84,21,-125
1749722501001.187,266123,1749722500982.25,-93,22,-125
1749722501021.031,266008,1749722501002.125,-97,22,-128
1749722501040.844,265790,1749722501021.969,-81,24,-128
1749722501060.719,265527,1749722501041.781,-81,22,-126
1749722501080.594,265202,1749722501061.625,-79,27,-125
1749722501100.406,264878,1749722501081.531,-80,31,-128
1749722501120.25,264596,1749722501101.344,-69,28,-128
1749722501140.094,264331,1749722501121.188,-82,31,-125
1749722501159.969,264166,1749722501141.0,-97,28,-128
1749722501179.781,264028,1749722501160.875,-84,30,-132
1749722501199.625,263934,1749722501180.719,-80,28,-128
1749722501219.5,263861,1749722501200.563,-80,24,-128
1749722501239.375,263813,1749722501220.375,-77,25,-128
1749722501259.187,263746,1749722501240.25,-85,30,-128
1749722501279.062,263648,1749722501260.125,-80,28,-128
1749722501298.906,263524,1749722501279.969,-80,25,-128
1749722501318.75,263399,1749722501299.813,-78,26,-128
1749722501338.594,263234,1749722501319.687,-74,25,-128
1749722501358.469,262993,1749722501339.531,-68,27,-125
1749722501378.312,262853,1749722501359.375,-72,30,-128
1749722501398.1882,262646,1749722501379.219,-69,28,-141
1749722501418.0,262422,1749722501399.063,-82,30,-141
1749722501437.875,262284,1749722501418.969,-81,31,-137
1749722501457.719,262106,1749722501438.781,-77,30,-128
1749722501477.562,261775,1749722501458.625,-71,23,-128
1749722501497.375,261212,1749722501478.469,-66,22,-141
1749722501517.25,260480,1749722501498.312,-69,31,-134
1749722501537.156,259624,1749722501518.187,-88,28,-128
1749722501556.937,258846,1749722501537.969,-88,31,-136
1749722501576.813,258126,1749722501557.844,-77,31,-125
1749722501596.625,257504,1749722501577.688,-74,31,-128
1749722501616.469,256984,1749722501597.562,-72,24,-128
1749722501636.344,256492,1749722501617.406,-72,33,-136
1749722501656.187,256035,1749722501637.219,-72,31,-145
1749722501676.031,255646,1749722501657.125,-84,30,-128
1749722501695.875,255336,1749722501676.969,-80,28,-128
1749722501715.75,255092,1749722501696.781,-80,28,-128
1749722501735.594,254825,1749722501716.656,-74,28,-128
1749722501755.469,254534,1749722501736.5,-76,28,-128
1749722501775.281,254186,1749722501756.406,-72,31,-128
1749722501795.125,253840,1749722501776.187,-87,33,-128
1749722501814.969,253372,1749722501796.062,-84,31,-128
1749722501834.812,253001,1749722501815.875,-75,35,-128
1749722501854.688,252629,1749722501835.75,-73,30,-137
1749722501874.594,252258,1749722501855.594,-71,31,-145
1749722501894.375,252005,1749722501875.437,-88,15,-136
1749722501914.187,251716,1749722501895.281,-80,28,-139
1749722501934.031,251469,1749722501915.125,-71,28,-128
1749722501953.906,251211,1749722501934.938,-66,31,-128
1749722501973.75,250966,1749722501954.781,-80,30,-128
1749722501993.531,250727,1749722501974.625,-79,31,-128
1749722502013.406,250506,1749722501994.469,-77,31,-128
1749722502033.25,250245,1749722502014.313,-77,33,-128
1749722502053.063,250035,1749722502034.156,-82,32,-128
1749722502072.906,249826,1749722502054.0,-68,31,-128
1749722502092.75,249661,1749722502073.844,-74,31,-125
1749722502112.594,249482,1749722502093.687,-90,35,-128
1749722502132.437,249268,1749722502113.5,-76,32,-128
1749722502152.281,249077,1749722502133.344,-76,35,-138
1749722502172.094,248920,1749722502153.188,-68,32,-128
1749722502191.969,248797,1749722502173.031,-80,33,-125
1749722502211.812,248694,1749722502192.875,-82,33,-128
1749722502231.656,248586,1749722502212.719,-84,39,-129
1749722502251.469,248471,1749722502232.563,-76,31,-141
1749722502271.313,248107,1749722502252.437,-77,24,-140
1749722502291.156,247479,1749722502272.219,-84,25,-137
1749722502311.031,246670,1749722502292.062,-72,27,-128
1749722502330.875,245807,1749722502311.906,-71,28,-128
1749722502350.688,244990,1749722502331.844,-72,31,-128
1749722502370.563,244226,1749722502351.625,-82,30,-128
1749722502390.406,243618,1749722502371.469,-80,36,-137
1749722502410.25,243106,1749722502391.313,-80,39,-128
1749722502430.094,242696,1749722502411.188,-74,32,-128
1749722502450.0,242372,1749722502431.0,-89,33,-128
1749722502469.812,242097,1749722502450.844,-83,33,-135
1749722502489.625,241872,1749722502470.75,-73,35,-128
1749722502509.5,241710,1749722502490.563,-65,36,-133
1749722502529.375,241555,1749722502510.438,-84,31,-128
1749722502549.219,241394,1749722502530.281,-75,30,-128
1749722502569.062,241166,1749722502550.125,-71,35,-125
1749722502588.937,240934,1749722502570.0,-80,33,-138
1749722502608.781,240661,1749722502589.844,-76,31,-128
1749722502628.656,240370,1749722502609.688,-72,32,-137
1749722502648.469,240062,1749722502629.562,-73,31,-128
1749722502668.312,239790,1749722502649.375,-80,31,-125
1749722502688.188,239574,1749722502669.25,-79,35,-128
1749722502708.063,239385,1749722502689.094,-82,35,-128
1749722502727.875,239206,1749722502708.9692,-81,25,-128
1749722502747.75,239070,1749722502728.844,-89,30,-128
1749722502767.594,238952,1749722502748.656,-87,31,-137
1749722502787.438,238812,1749722502768.5,-87,24,-139
1749722502807.281,238711,1749722502788.344,-77,24,-128
1749722502827.156,238549,1749722502808.25,-72,24,-128
1749722502847.0,238469,1749722502828.125,-80,30,-138
1749722502866.875,238362,1749722502847.906,-73,32,-128
1749722502886.719,238283,1749722502867.781,-77,32,-128
1749722502906.563,238190,1749722502887.625,-80,40,-137
1749722502926.437,238112,1749722502907.5,-73,28,-128
1749722502946.281,238002,1749722502927.344,-74,31,-128
1749722502966.125,237914,1749722502947.188,-84,38,-122
1749722502986.0,237803,1749722502967.062,-80,38,-128
1749722503005.812,237734,1749722502986.937,-73,34,-128
1749722503025.687,237665,1749722503006.75,-80,33,-128
1749722503045.531,237607,1749722503026.594,-77,31,-128
1749722503065.375,237549,1749722503046.469,-73,36,-125
1749722503085.25,237488,1749722503066.312,-89,34,-122
1749722503105.094,237384,1749722503086.156,-83,39,-125
1749722503124.969,237366,1749722503106.0,-79,38,-136
1749722503144.781,237315,1749722503125.844,-74,35,-145
1749722503164.656,237217,1749722503145.75,-77,35,-128
1749722503184.5,237229,1749722503165.531,-64,38,-128
1749722503204.375,237193,1749722503185.437,-84,33,-128
1749722503224.188,237145,1749722503205.281,-83,36,-128
1749722503244.031,237143,1749722503225.156,-84,32,-132
1749722503263.906,237137,1749722503244.937,-73,33,-128
1749722503283.75,237127,1749722503264.781,-77,35,-138
1749722503303.594,236999,1749722503284.688,-77,33,-128
1749722503323.469,236622,1749722503304.531,-80,35,-140
1749722503343.281,236082,1749722503324.375,-85,31,-128
1749722503363.156,235478,1749722503344.156,-80,37,-137
1749722503383.0,234885,1749722503364.094,-73,33,-125
1749722503402.844,234357,1749722503383.938,-88,35,-128
1749722503422.719,233892,1749722503403.75,-81,33,-128
1749722503442.687,233553,1749722503423.625,-77,36,-128
1749722503462.375,233309,1749722503443.562,-85,38,-127
1749722503482.219,233165,1749722503463.312,-73,35,-128
1749722503502.063,233044,1749722503483.156,-82,38,-128
1749722503521.938,232985,1749722503502.969,-80,40,-128
1749722503541.75,232980,1749722503522.844,-81,35,-128
1749722503561.594,232960,1749722503542.656,-77,36,-128
1749722503581.469,232941,1749722503562.5,-71,40,-135
1749722503601.3132,232792,1749722503582.375,-77,32,-128
1749722503621.125,232698,1749722503602.219,-72,34,-116
1749722503641.0,232543,1749722503622.094,-74,33,-124
1749722503660.875,232301,1749722503641.906,-72,32,-128
1749722503680.719,232145,1749722503661.781,-73,32,-125
1749722503700.563,231954,1749722503681.75,-77,33,-128
1749722503720.406,231747,1749722503701.469,-88,32,-128
1749722503740.25,231655,1749722503721.344,-84,32,-128
1749722503760.125,231567,1749722503741.188,-81,35,-128
1749722503780.094,231478,1749722503761.031,-76,35,-128
1749722503799.813,231422,1749722503781.031,-93,29,-127
1749722503819.656,231391,1749722503800.75,-84,33,-125
1749722503839.5,231355,1749722503820.594,-74,31,-128
1749722503859.375,231358,1749722503840.438,-64,25,-138
1749722503879.219,231321,1749722503860.281,-72,31,-128
1749722503899.031,231295,1749722503880.156,-72,33,-128
1749722503918.906,231273,1749722503899.969,-76,40,-137
1749722503938.781,231260,1749722503919.812,-77,35,-125
1749722503958.594,231242,1749722503939.688,-82,33,-128
1749722503978.469,231205,1749722503959.531,-73,35,-124
1749722503998.312,231187,1749722503979.406,-77,35,-128
1749722504018.187,231167,1749722503999.219,-75,33,-128
1749722504038.0,231145,1749722504019.188,-76,34,-122
1749722504057.875,231110,1749722504038.969,-72,33,-128
1749722504077.719,231093,1749722504058.781,-87,28,-122
1749722504097.594,231074,1749722504078.625,-84,32,-128
1749722504117.406,231035,1749722504098.5,-80,35,-128
1749722504137.281,231072,1749722504118.469,-73,35,-137
1749722504157.188,231063,1749722504138.188,-73,31,-128
1749722504177.031,231081,1749722504158.094,-72,31,-137
1749722504196.875,231086,1749722504177.937,-81,32,-128
1749722504216.75,230947,1749722504197.781,-74,31,-128
1749722504236.656,230661,1749722504217.625,-73,44,-138
1749722504256.469,230240,1749722504237.5,-80,23,-132
1749722504276.312,229751,1749722504257.375,-81,35,-128
1749722504296.125,229218,1749722504277.25,-84,31,-128
1749722504316.031,228760,1749722504297.0632,-72,36,-151
1749722504335.875,228363,1749722504316.906,-84,31,-137
1749722504355.687,228087,1749722504336.781,-88,35,-128
1749722504375.562,227893,1749722504356.656,-74,38,-128
1749722504395.438,227744,1749722504376.469,-72,31,-126
1749722504415.281,227640,1749722504396.344,-76,35,-128
1749722504435.0942,227588,1749722504416.187,-69,28,-128
1749722504454.969,227548,1749722504436.031,-83,32,-128
1749722504474.844,227539,1749722504455.875,-87,32,-128
1749722504494.688,227507,1749722504475.75,-72,31,-128
1749722504514.531,227401,1749722504495.594,-68,27,-128
1749722504534.375,227309,1749722504515.4368,-79,31,-128
1749722504554.25,227132,1749722504535.25,-79,31,-129
1749722504574.094,226925,1749722504555.156,-89,32,-128
1749722504593.9382,226794,1749722504575.031,-97,41,-128
1749722504613.812,226632,1749722504594.875,-72,28,-128
1749722504633.656,226479,1749722504614.75,-78,28,-128
1749722504653.531,226381,1749722504634.563,-85,23,-130
1749722504673.375,226303,1749722504654.438,-79,31,-128
1749722504693.219,226230,1749722504674.312,-87,30,-128
1749722504713.094,226209,1749722504694.094,-73,31,-138
1749722504732.969,226171,1749722504714.0,-79,25,-128
1749722504752.781,226170,1749722504733.875,-76,33,-128
1749722504772.656,226142,1749722504753.75,-74,34,-128
1749722504792.531,226133,1749722504773.562,-82,31,-128
1749722504812.375,226126,1749722504793.437,-88,31,-128
1749722504832.219,226099,1749722504813.281,-73,27,-128
1749722504852.094,226062,1749722504833.188,-88,31,-128
1749722504871.938,226090,1749722504853.0,-81,31,-148
1749722504891.844,226075,1749722504872.875,-85,32,-133
1749722504911.656,226016,1749722504892.75,-73,31,-140
1749722504931.531,226039,1749722504912.625,-73,37,-135
1749722504951.375,226037,1749722504932.437,-79,31,-137
1749722504971.25,226012,1749722504952.312,-72,32,-128
1749722504991.094,226015,1749722504972.156,-87,31,-126
1749722505010.969,226031,1749722504992.031,-80,32,-137
1749722505030.844,226034,1749722505011.875,-85,33,-128
1749722505050.687,226041,1749722505031.75,-82,28,-129
1749722505070.531,226041,1749722505051.594,-90,32,-128
1749722505090.375,226074,1749722505071.438,-73,31,-128
1749722505110.25,226082,1749722505091.313,-77,28,-128
1749722505130.125,226103,1749722505111.156,-77,28,-127
1749722505149.937,226148,1749722505131.031,-88,32,-128
1749722505169.812,226182,1749722505150.875,-93,31,-128
1749722505189.656,226114,1749722505170.688,-90,30,-128
1749722505209.531,225865,1749722505190.562,-93,31,-128
1749722505229.344,225447,1749722505210.437,-84,32,-137
1749722505249.219,224956,1749722505230.281,-89,31,-128
1749722505269.094,224463,1749722505250.125,-80,30,-128
1749722505288.938,224019,1749722505270.0,-80,32,-127
1749722505308.75,223633,1749722505289.844,-76,27,-128
1749722505328.625,223382,1749722505309.687,-74,44,-125
1749722505348.5,223119,1749722505329.563,-73,31,-128
1749722505368.375,223029,1749722505349.438,-90,39,-128
1749722505388.2192,222941,1749722505369.281,-89,29,-120
1749722505408.094,222808,1749722505389.156,-79,32,-128
1749722505427.969,222811,1749722505409.031,-72,31,-128
1749722505447.844,222747,1749722505428.906,-79,33,-128
1749722505467.688,222717,1749722505448.75,-82,35,-128
1749722505487.562,222670,1749722505468.625,-76,33,-128
1749722505507.406,222600,1749722505488.469,-63,28,-128
1749722505527.281,222474,1749722505508.344,-72,28,-128
1749722505547.156,222352,1749722505528.188,-77,25,-128
1749722505567.031,222221,1749722505548.094,-87,35,-141
1749722505586.937,222084,1749722505567.938,-80,31,-128
1749722505606.75,221967,1749722505587.875,-80,35,-128
1749722505626.594,221884,1749722505607.656,-77,31,-132
1749722505646.4692,221794,1749722505627.531,-77,28,-145
1749722505666.344,221755,1749722505647.375,-77,47,-128
1749722505686.188,221726,1749722505667.25,-72,31,-142
1749722505706.063,221705,1749722505687.125,-77,31,-128
1749722505725.937,221702,1749722505707.0,-84,31,-106
1749722505745.812,221683,1749722505726.875,-72,33,-128
1749722505765.656,221711,1749722505746.719,-80,33,-128
1749722505785.5,221713,1749722505766.563,-82,30,-143
1749722505805.406,221726,1749722505786.437,-84,35,-128
1749722505825.25,221734,1749722505806.312,-72,32,-128
1749722505845.094,221759,1749722505826.188,-82,34,-128
1749722505864.969,221713,1749722505846.031,-72,28,-128
1749722505884.813,221769,1749722505865.875,-73,35,-136
1749722505904.687,221769,1749722505885.75,-89,28,-128
1749722505924.5,221785,1749722505905.594,-76,33,-128
1749722505944.375,221800,1749722505925.438,-87,25,-137
1749722505964.25,221826,1749722505945.312,-85,23,-128
1749722505984.094,221824,1749722505965.156,-84,33,-128
1749722506003.906,221868,1749722505985.031,-80,32,-128
1749722506023.781,221880,1749722506004.875,-73,32,-128
1749722506043.656,221910,1749722506024.719,-72,32,-128
1749722506063.5,221955,1749722506044.594,-76,32,-137
1749722506083.344,221982,1749722506064.406,-77,30,-128
1749722506103.187,222005,1749722506084.281,-80,33,-138
1749722506123.063,222044,1749722506104.156,-80,31,-128
1749722506142.906,222122,1749722506123.969,-80,35,-128
1749722506162.75,222214,1749722506143.844,-76,31,-128
1749722506182.594,222208,1749722506163.781,-85,27,-128
1749722506202.469,222196,1749722506183.531,-90,32,-127
1749722506222.313,222306,1749722506203.375,-77,31,-128
1749722506242.188,222490,1749722506223.219,-84,31,-121
1749722506262.125,222661,1749722506243.094,-93,24,-116
1749722506281.844,222750,1749722506263.031,-95,26,-105
1749722506301.719,222681,1749722506282.75,-93,15,-113
1749722506321.594,222445,1749722506302.656,-95,17,-119
1749722506341.406,222160,1749722506322.5,-113,14,-117
1749722506361.281,221737,1749722506342.344,-104,20,-124
1749722506381.25,221298,1749722506362.188,-97,24,-121
1749722506401.0,220864,1749722506382.031,-90,32,-113
1749722506420.813,220474,1749722506401.906,-93,25,-114
1749722506440.656,220195,1749722506421.75,-100,30,-114
1749722506460.531,220004,1749722506441.562,-97,33,-104
1749722506480.375,219888,1749722506461.438,-93,31,-117
1749722506500.219,219765,1749722506481.313,-108,30,-118
1749722506520.062,219684,1749722506501.219,-108,31,-120
1749722506539.937,219595,1749722506521.0,-99,28,-114
1749722506559.781,219533,1749722506540.875,-86,28,-124
1749722506579.625,219463,1749722506560.719,-72,28,-121
1749722506599.5,219328,1749722506580.594,-79,30,-125
1749722506619.344,219365,1749722506600.406,-89,31,-122
1749722506639.219,219454,1749722506620.281,-95,31,-121
1749722506659.063,219643,1749722506640.125,-100,35,-117
1749722506678.906,220069,1749722506660.0,-109,34,-129
1749722506698.75,220427,1749722506679.812,-112,38,-112
1749722506718.719,220728,1749722506699.656,-92,35,-121
1749722506738.469,220982,1749722506719.563,-96,31,-116
1749722506758.344,221156,1749722506739.406,-99,28,-125
1749722506778.188,221340,1749722506759.25,-98,16,-121
1749722506798.062,221395,1749722506779.094,-97,27,-125
1749722506817.875,221424,1749722506798.969,-100,22,-117
1749722506837.75,221431,1749722506818.781,-90,16,-112
1749722506857.594,221455,1749722506838.656,-98,18,-122
1749722506877.469,221502,1749722506858.5,-88,18,-127
1749722506897.312,221525,1749722506878.375,-88,20,-122
1749722506917.188,221522,1749722506898.25,-85,22,-122
1749722506937.0,221501,1749722506918.063,-93,19,-121
1749722506956.875,221464,1749722506937.937,-102,24,-114
1749722506976.687,221419,1749722506957.781,-97,33,-114
1749722506996.562,221312,1749722506977.625,-89,22,-121
1749722507016.438,221217,1749722506997.469,-93,22,-121
1749722507036.281,221132,1749722507017.313,-98,31,-112
1749722507056.094,221093,1749722507037.187,-97,35,-117
1749722507075.969,221114,1749722507057.062,-96,25,-121
1749722507095.844,221092,1749722507076.875,-93,30,-121
1749722507115.688,221120,1749722507096.75,-101,35,-113
1749722507135.531,221184,1749722507116.562,-95,32,-129
1749722507155.406,221123,1749722507136.469,-100,36,-124
1749722507175.25,221175,1749722507156.313,-98,38,-145
1749722507195.125,221216,1749722507176.188,-92,36,-144
1749722507214.969,221375,1749722507196.062,-99,30,-128
1749722507234.844,221675,1749722507215.906,-96,39,-128
1749722507254.687,222054,1749722507235.75,-100,38,-128
1749722507274.563,222224,1749722507255.594,-133,28,-118
1749722507294.406,222560,1749722507275.469,-177,24,-102
1749722507314.281,223493,1749722507295.344,-205,12,-97
1749722507334.125,224682,1749722507315.187,-197,-4,-81
1749722507354.0,225965,1749722507335.031,-160,-8,-64
1749722507373.844,227393,1749722507354.938,-177,-6,-73
1749722507393.687,228573,1749722507374.781,-178,-5,-81
1749722507413.562,229572,1749722507394.625,-145,-14,-93
1749722507433.438,230450,1749722507414.438,-157,-24,-96
1749722507453.25,231338,1749722507434.313,-160,-28,-105
1749722507473.125,232238,1749722507454.187,-141,-33,-89
1749722507493.0,233110,1749722507474.062,-141,-44,-97
1749722507512.875,233824,1749722507493.906,-133,-49,-106
