Untitled1.acq
Graph Created on: 2025-05-08 10:59:51.363
Recording on: 2025-05-08 11:01:46.417
0.5 msec/sample
2 channels
PPG, X, PPGED-R
Volts
ECG, X, RSPEC-R
mV
CH1	CH9	
254970 samples	254970 samples	
0.862427	-0.0512695	
0.861816	-0.0483704	
0.859985	-0.0463867	
0.857849	-0.045929	
0.856628	-0.045929	
0.856934	-0.0454712	
0.856628	-0.043335	
0.855103	-0.0408936	
0.852051	-0.0386047	
0.851135	-0.0357056	
0.852051	-0.0311279	
0.85144	-0.0263977	
0.85144	-0.0218201	
0.852051	-0.0187683	
0.851135	-0.014801	
0.85144	-0.0115967	
0.852051	-0.00915527	
0.85144	-0.00778198	
0.853271	-0.00900269	
0.855103	-0.0102234	
0.856323	-0.0141907	
0.856628	-0.0193787	
0.856018	-0.0257874	
0.855713	-0.0312805	
0.855408	-0.0354004	
0.857849	-0.0386047	
0.860291	-0.0404358	
0.861206	-0.0421143	
0.861206	-0.0453186	
0.862732	-0.0495911	
0.865479	-0.0558472	
0.865784	-0.0630188	
0.865784	-0.0697327	
0.86731	-0.0750732	
0.870056	-0.0790405	
0.870972	-0.0798035	
0.870667	-0.0796509	
0.872803	-0.0773621	
0.874939	-0.0720215	
0.875854	-0.0660706	
0.875549	-0.059967	
0.87677	-0.0537109	
0.880127	-0.0488281	
0.880737	-0.0454712	
0.881042	-0.0416565	
0.882874	-0.0390625	
0.88501	-0.0389099	
0.88562	-0.0386047	
0.88562	-0.0384521	
0.887756	-0.0384521	
0.888977	-0.0379944	
0.890198	-0.0363159	
0.890198	-0.0337219	
0.892029	-0.0299072	
0.894165	-0.0244141	
0.894775	-0.0184631	
0.897217	-0.0126648	
0.899658	-0.00839233	
0.900269	-0.00427246	
0.9021	0.000762939	
0.904541	0.00534058	
0.905457	0.00900269	
0.905151	0.0108337	
0.907593	0.0123596	
0.91095	0.0115967	
0.913391	0.00701904	
0.915222	0.000152588	
0.914917	-0.00701904	
0.916748	-0.0161743	
0.9198	-0.0245667	
0.921631	-0.032959	
0.924072	-0.0413513	
0.926514	-0.0508118	
0.928955	-0.0610352	
0.929871	-0.0717163	
0.92926	-0.0805664	
0.932007	-0.0894165	
0.934143	-0.0965881	
0.934448	-0.102234	
0.934753	-0.105896	
0.9375	-0.107422	
0.939331	-0.108643	
0.939636	-0.106049	
0.939331	-0.102234	
0.942078	-0.0971985	
0.944214	-0.0923157	
0.944214	-0.0878906	
0.944519	-0.0843811	
0.947266	-0.0801086	
0.948792	-0.0756836	
0.949707	-0.0737	
0.949402	-0.0730896	
0.949707	-0.0735474	
0.951538	-0.0747681	
0.953979	-0.0762939	
0.954895	-0.0744629	
0.957031	-0.0708008	
0.958557	-0.0675964	
0.959778	-0.0628662	
0.958862	-0.0590515	
0.961304	-0.0563049	
0.96344	-0.0550842	
0.964661	-0.0531006	
0.966187	-0.0511169	
0.968018	-0.0512695	
0.970459	-0.0532532	
0.973206	-0.0553894	
0.975647	-0.0558472	
0.978088	-0.055542	
0.979309	-0.0552368	
0.981445	-0.0538635	
0.983887	-0.0534058	
0.983887	-0.0532532	
0.986023	-0.0531006	
0.988159	-0.0540161	
0.989075	-0.0552368	
0.990601	-0.0569153	
0.992737	-0.0595093	
0.993652	-0.06073	
0.996399	-0.062561	
0.99823	-0.0617981	
0.99884	-0.0584412	
0.999146	-0.0561523	
0.99884	-0.0553894	
1.00159	-0.0538635	
1.00281	-0.0527954	
1.00403	-0.0505066	
1.00372	-0.0486755	
1.00555	-0.0488281	
1.008	-0.0509644	
1.00861	-0.0527954	
1.00891	-0.0538635	
1.0083	-0.0549316	
1.00922	-0.0552368	
1.01044	-0.0524902	
1.01257	-0.0488281	
1.01349	-0.0466919	
1.01349	-0.045929	
1.01379	-0.0465393	
1.01349	-0.04776	
1.01593	-0.0483704	
1.01715	-0.0494385	
1.01776	-0.0511169	
1.01868	-0.0532532	
1.01837	-0.0550842	
1.02051	-0.0553894	
1.02203	-0.0553894	
1.02295	-0.0532532	
1.02295	-0.0511169	
1.02264	-0.0482178	
1.02295	-0.0456238	
1.02234	-0.0411987	
1.02539	-0.0370789	
1.02692	-0.0337219	
1.02814	-0.0323486	
1.02783	-0.0340271	
1.02783	-0.0361633	
1.02783	-0.0395203	
1.02722	-0.0436401	
1.026	-0.0483704	
1.02661	-0.0531006	
1.02692	-0.058136	
1.02844	-0.0604248	
1.02631	-0.0630188	
1.02386	-0.0657654	
1.02295	-0.0689697	
1.02386	-0.0723267	
1.02325	-0.0756836	
1.02203	-0.0802612	
1.02264	-0.0842285	
1.02264	-0.0880432	
1.02295	-0.0914001	
1.02112	-0.091095	
1.02112	-0.0874329	
1.02264	-0.0820923	
1.02081	-0.0752258	
1.01837	-0.0675964	
1.01837	-0.0596619	
1.01807	-0.0527954	
1.01746	-0.0460815	
1.01746	-0.0382996	
1.01837	-0.032196	
1.01837	-0.0273132	
1.01776	-0.0239563	
1.01807	-0.0212097	
1.01807	-0.0195313	
1.01868	-0.0192261	
1.01654	-0.0184631	
1.0144	-0.0169373	
1.01379	-0.0166321	
1.01379	-0.0164795	
1.01471	-0.0163269	
1.01379	-0.0163269	
1.0141	-0.0170898	
1.01288	-0.0183105	
1.01349	-0.0192261	
1.01318	-0.0222778	
1.01196	-0.0262451	
1.01135	-0.0306702	
1.01288	-0.0340271	
1.01074	-0.0375366	
1.00952	-0.0384521	
1.00891	-0.0390625	
1.0083	-0.0411987	
1.00861	-0.0436401	
1.00647	-0.0460815	
1.00464	-0.0479126	
1.00342	-0.0469971	
1.00189	-0.0463867	
0.999451	-0.045166	
0.999451	-0.0434875	
0.999146	-0.0413513	
0.997009	-0.0418091	
0.994873	-0.0437927	
0.994263	-0.0456238	
0.993652	-0.0482178	
0.991516	-0.0500488	
0.989685	-0.0505066	
0.986938	-0.0494385	
0.984802	-0.0456238	
0.984192	-0.0410461	
0.984192	-0.0357056	
0.98175	-0.0314331	
0.979614	-0.0291443	
0.979309	-0.0262451	
0.977173	-0.0242615	
0.975037	-0.0254822	
0.97229	-0.0283813	
0.969849	-0.0311279	
0.968933	-0.0334167	
0.966797	-0.0361633	
0.965271	-0.0392151	
0.962219	-0.0434875	
0.960083	-0.0483704	
0.957642	-0.0532532	
0.954895	-0.057373	
0.953979	-0.0604248	
0.952454	-0.0621033	
0.949707	-0.0631714	
0.949402	-0.0636292	
0.947266	-0.0650024	
0.945129	-0.0645447	
0.942688	-0.063324	
0.940552	-0.0631714	
0.937805	-0.0628662	
0.935669	-0.063324	
0.932922	-0.0627136	
0.930786	-0.0613403	
0.928345	-0.0601196	
0.925598	-0.0578308	
0.923157	-0.0556946	
0.918884	-0.052948	
0.915833	-0.0506592	
0.913086	-0.0476074	
0.91095	-0.0453186	
0.908813	-0.0456238	
0.906372	-0.0462341	
0.90332	-0.0482178	
0.901184	-0.0502014	
0.898438	-0.0505066	
0.895691	-0.0500488	
0.89325	-0.0480652	
0.891113	-0.0466919	
0.890198	-0.0466919	
0.888367	-0.0483704	
0.884399	-0.0506592	
0.881958	-0.0538635	
0.878906	-0.0578308	
0.876465	-0.0595093	
0.873413	-0.0611877	
0.870972	-0.063324	
0.871277	-0.065155	
0.869446	-0.0648499	
0.866699	-0.0634766	
0.865173	-0.0628662	
0.863647	-0.0631714	
0.861816	-0.0627136	
0.85907	-0.0631714	
0.856934	-0.0628662	
0.854492	-0.0631714	
0.852661	-0.0628662	
0.849609	-0.0634766	
0.847473	-0.0630188	
0.844727	-0.0631714	
0.842896	-0.0627136	
0.839233	-0.0605774	
0.837402	-0.0592041	
0.835266	-0.0578308	
0.830688	-0.0559998	
0.827637	-0.0561523	
0.827332	-0.0584412	
0.8255	-0.06073	
0.820618	-0.0622559	
0.817566	-0.0630188	
0.814514	-0.0624084	
0.813599	-0.059967	
0.810547	-0.0559998	
0.808105	-0.052948	
0.805359	-0.0486755	
0.803528	-0.045929	
0.800781	-0.0436401	
0.796204	-0.0402832	
0.793152	-0.0357056	
0.790405	-0.0315857	
0.788574	-0.0256348	
0.785828	-0.019989	
0.783386	-0.0166321	
0.78064	-0.0152588	
0.776367	-0.0167847	
0.773926	-0.0195313	
0.770569	-0.0238037	
0.768738	-0.0286865	
0.766602	-0.0340271	
0.762024	-0.0386047	
0.758362	-0.0427246	
0.756226	-0.045929	
0.754089	-0.0489807	
0.751343	-0.0543213	
0.746765	-0.0602722	
0.744324	-0.0656128	
0.743713	-0.0706482	
0.740967	-0.0749207	
0.736389	-0.0770569	
0.733643	-0.0770569	
0.731201	-0.0740051	
0.72937	-0.0671387	
0.726624	-0.0584412	
0.724182	-0.0509644	
0.722046	-0.0442505	
0.717163	-0.0398254	
0.714417	-0.0395203	
0.714111	-0.0398254	
0.711365	-0.0387573	
0.707703	-0.0378418	
0.704346	-0.0357056	
0.701599	-0.0340271	
0.699768	-0.0334167	
0.697632	-0.0315857	
0.693359	-0.0311279	
0.690002	-0.032196	
0.687561	-0.0352478	
0.683594	-0.0364685	
0.679932	-0.0395203	
0.67749	-0.0422668	
0.673828	-0.0431824	
0.66803	-0.0434875	
0.666199	-0.0428772	
0.663147	-0.0408936	
0.6604	-0.0390625	
0.657654	-0.0369263	
0.654297	-0.0346375	
0.65094	-0.0315857	
0.648193	-0.0286865	
0.644531	-0.0271606	
0.640869	-0.0263977	
0.638733	-0.0270081	
0.635681	-0.0297546	
0.632935	-0.0325012	
0.629578	-0.0334167	
0.623779	-0.0326538	
0.621643	-0.0311279	
0.617981	-0.0288391	
0.614014	-0.0262451	
0.612183	-0.0247192	
0.608826	-0.0239563	
0.604553	-0.0238037	
0.59967	-0.0241089	
0.596619	-0.0267029	
0.593872	-0.0288391	
0.5896	-0.032196	
0.587463	-0.0369263	
0.583496	-0.0442505	
0.579529	-0.0534058	
0.574951	-0.062561	
0.572205	-0.0706482	
0.568848	-0.0770569	
0.567322	-0.0817871	
0.56427	-0.0848389	
0.559998	-0.085907	
0.55481	-0.0849915	
0.552673	-0.0822449	
0.549622	-0.0779724	
0.545654	-0.075531	
0.542908	-0.072937	
0.540161	-0.0706482	
0.536194	-0.0682068	
0.533142	-0.0648499	
0.530396	-0.06073	
0.526123	-0.055542	
0.523071	-0.0500488	
0.52063	-0.0440979	
0.518799	-0.0386047	
0.515442	-0.0337219	
0.511475	-0.0294495	
0.508728	-0.0262451	
0.505676	-0.0242615	
0.50354	-0.0244141	
0.500793	-0.0265503	
0.496521	-0.0285339	
0.494385	-0.0312805	
0.490417	-0.0331116	
0.48645	-0.0341797	
0.483704	-0.0366211	
0.480652	-0.0404358	
0.479126	-0.0450134	
0.476379	-0.0511169	
0.472107	-0.0575256	
0.46936	-0.0630188	
0.467224	-0.0674438	
0.463867	-0.0697327	
0.462036	-0.0700378	
0.458984	-0.070343	
0.458984	-0.070343	
0.457764	-0.0709534	
0.444336	-0.0706482	
0.427551	-0.070343	
0.420837	-0.070343	
0.417786	-0.0704956	
0.412903	-0.0650024	
0.411377	-0.0549316	
0.407104	-0.0520325	
0.404663	-0.0540161	
0.401917	-0.0575256	
0.399475	-0.0605774	
0.397949	-0.0624084	
0.392761	-0.0624084	
0.390625	-0.0604248	
0.388184	-0.0582886	
0.383606	-0.0563049	
0.381165	-0.055542	
0.377502	-0.0558472	
0.374146	-0.055542	
0.371399	-0.0564575	
0.368652	-0.0578308	
0.366516	-0.0585938	
0.363159	-0.059967	
0.359497	-0.0601196	
0.356445	-0.0587463	
0.355835	-0.0576782	
0.353088	-0.055542	
0.349731	-0.0540161	
0.34668	-0.0527954	
0.344238	-0.0508118	
0.339661	-0.0476074	
0.337219	-0.0431824	
0.333557	-0.0392151	
0.331726	-0.0369263	
0.330505	-0.035553	
0.328979	-0.0341797	
0.324707	-0.0340271	
0.321655	-0.0337219	
0.318909	-0.0331116	
0.316772	-0.0317383	
0.314331	-0.030365	
0.310974	-0.0294495	
0.309448	-0.0288391	
0.305176	-0.0291443	
0.302124	-0.0312805	
0.299683	-0.032959	
0.297241	-0.0337219	
0.2948	-0.0341797	
0.292358	-0.0360107	
0.289917	-0.0384521	
0.28717	-0.0415039	
0.285339	-0.0468445	
0.282593	-0.0520325	
0.280151	-0.0563049	
0.27832	-0.0604248	
0.274963	-0.0630188	
0.270996	-0.0654602	
0.265503	-0.0668335	
0.262146	-0.065155	
0.262451	-0.0630188	
0.260315	-0.0604248	
0.257568	-0.0584412	
0.255737	-0.0556946	
0.251465	-0.0538635	
0.248413	-0.0526428	
0.244751	-0.0511169	
0.243225	-0.0509644	
0.240784	-0.0506592	
0.238037	-0.0506592	
0.235596	-0.0508118	
0.231323	-0.0515747	
0.229187	-0.0526428	
0.22644	-0.0523376	
0.223694	-0.0505066	
0.220947	-0.0483704	
0.216675	-0.045929	
0.214233	-0.0434875	
0.212097	-0.0408936	
0.20874	-0.0396729	
0.206909	-0.0405884	
0.204163	-0.0411987	
0.201111	-0.0413513	
0.197754	-0.0428772	
0.194397	-0.0431824	
0.192261	-0.0427246	
0.189514	-0.0428772	
0.186768	-0.0454712	
0.184326	-0.0476074	
0.184631	-0.0482178	
0.181885	-0.0482178	
0.177917	-0.0483704	
0.175171	-0.0474548	
0.172119	-0.045929	
0.169678	-0.0422668	
0.169678	-0.0370789	
0.167236	-0.030365	
0.164795	-0.0244141	
0.162354	-0.0189209	
0.160217	-0.0138855	
0.157166	-0.00823975	
0.154724	-0.00213623	
0.152588	0.00244141	
0.150146	0.00488281	
0.1474	0.00411987	
0.144958	0.000305176	
0.142212	-0.00442505	
0.140381	-0.0112915	
0.140076	-0.0216675	
0.137939	-0.0331116	
0.135498	-0.0439453	
0.132446	-0.0547791	
0.13031	-0.0628662	
0.127869	-0.0689697	
0.125427	-0.0737	
0.122986	-0.0765991	
0.12085	-0.0790405	
0.118103	-0.0813293	
0.115967	-0.08255	
0.115051	-0.08255	
0.112915	-0.08255	
0.111389	-0.0819397	
0.109558	-0.0801086	
0.108337	-0.0770569	
0.105896	-0.072937	
0.10498	-0.0682068	
0.103455	-0.0617981	
0.101013	-0.0532532	
0.0982666	-0.0453186	
0.0964355	-0.0361633	
0.09552	-0.0276184	
0.0933838	-0.0215149	
0.0915527	-0.0178528	
0.0881958	-0.0167847	
0.0860596	-0.0170898	
0.0854492	-0.0190735	
0.0827026	-0.0221252	
0.0805664	-0.0271606	
0.0805664	-0.0328064	
0.0790405	-0.0366211	
0.0765991	-0.0398254	
0.0759888	-0.0413513	
0.0738525	-0.0436401	
0.0698853	-0.0468445	
0.0665283	-0.0500488	
0.0662231	-0.0540161	
0.0643921	-0.0579834	
0.0622559	-0.0611877	
0.0598145	-0.0650024	
0.057373	-0.0671387	
0.0540161	-0.0679016	
0.0524902	-0.0671387	
0.0518799	-0.0648499	
0.0494385	-0.0605774	
0.0476074	-0.055542	
0.0466919	-0.0505066	
0.0445557	-0.0466919	
0.0424194	-0.0450134	
0.0390625	-0.0457764	
0.0378418	-0.0500488	
0.0354004	-0.0546265	
0.0326538	-0.0585938	
0.0299072	-0.0619507	
0.0271606	-0.0628662	
0.0268555	-0.0639343	
0.0250244	-0.0646973	
0.0231934	-0.065918	
0.0204468	-0.0683594	
0.0177002	-0.0708008	
0.0170898	-0.0747681	
0.0149536	-0.0778198	
0.0131226	-0.0802612	
0.0106812	-0.0819397	
0.00793457	-0.0819397	
0.00640869	-0.0811768	
0.00610352	-0.0819397	
0.00305176	-0.0827026	
0.000610352	-0.0816345	
-0.00213623	-0.0801086	
-0.00457764	-0.0765991	
-0.00701904	-0.072937	
-0.00732422	-0.0698853	
-0.00946045	-0.0653076	
-0.0119019	-0.0613403	
-0.0119019	-0.0582886	
-0.0140381	-0.0564575	
-0.0164795	-0.0558472	
-0.0186157	-0.0559998	
-0.0216675	-0.0563049	
-0.022583	-0.0575256	
-0.022583	-0.0575256	
-0.0231934	-0.0559998	
-0.0265503	-0.0550842	
-0.0289917	-0.0531006	
-0.0292969	-0.0518799	
-0.0302124	-0.0508118	
-0.0320435	-0.0508118	
-0.0338745	-0.0509644	
-0.0363159	-0.0511169	
-0.0366211	-0.0511169	
-0.0396729	-0.0506592	
-0.0411987	-0.0508118	
-0.0424194	-0.0511169	
-0.0418091	-0.0508118	
-0.0418091	-0.0508118	
-0.0439453	-0.0515747	
-0.0463867	-0.0520325	
-0.0482178	-0.0508118	
-0.0509644	-0.0495911	
-0.0518799	-0.0462341	
-0.0515747	-0.0421143	
-0.0537109	-0.0372314	
-0.0552368	-0.0325012	
-0.0582886	-0.0273132	
-0.0610352	-0.0248718	
-0.0610352	-0.0250244	
-0.0640869	-0.0257874	
-0.065918	-0.0268555	
-0.0686646	-0.0282288	
-0.0701904	-0.0283813	
-0.0717163	-0.0286865	
-0.0738525	-0.0286865	
-0.0772095	-0.0292969	
-0.0802612	-0.0315857	
-0.0808716	-0.032959	
-0.0827026	-0.0334167	
-0.0848389	-0.0331116	
-0.0857544	-0.0317383	
-0.0866699	-0.0312805	
-0.0878906	-0.0314331	
-0.0897217	-0.0311279	
-0.0927734	-0.030365	
-0.0952148	-0.0299072	
-0.0952148	-0.0305176	
-0.0958252	-0.0300598	
-0.0976563	-0.0282288	
-0.0994873	-0.0234985	
-0.100708	-0.018158	
-0.100403	-0.0109863	
-0.102539	-0.00457764	
-0.104675	0.00198364	
-0.105591	0.0038147	
-0.105286	0.00167847	
-0.10498	-0.00518799	
-0.107117	-0.0141907	
-0.109253	-0.0247192	
-0.111694	-0.0357056	
-0.114441	-0.0460815	
-0.115356	-0.0546265	
-0.117493	-0.0596619	
-0.119934	-0.0634766	
-0.122375	-0.0679016	
-0.124512	-0.0724792	
-0.124817	-0.0767517	
-0.126953	-0.0814819	
-0.1297	-0.0845337	
-0.129395	-0.0874329	
-0.134277	-0.0898743	
-0.138855	-0.0920105	
-0.139465	-0.0917053	
-0.140381	-0.0898743	
-0.141907	-0.0871277	
-0.144043	-0.0827026	
-0.14679	-0.0775146	
-0.149536	-0.0721741	
-0.150146	-0.0666809	
-0.151367	-0.0630188	
-0.154419	-0.0605774	
-0.15686	-0.0590515	
-0.158691	-0.0575256	
-0.159912	-0.0546265	
-0.160217	-0.0500488	
-0.161743	-0.0447083	
-0.163879	-0.040741	
-0.166931	-0.0364685	
-0.168457	-0.0334167	
-0.169373	-0.0309753	
-0.169678	-0.0292969	
-0.170898	-0.0280762	
-0.175476	-0.0276184	
-0.178223	-0.0297546	
-0.179138	-0.0335693	
-0.181274	-0.0392151	
-0.183716	-0.045929	
-0.183105	-0.0518799	
-0.184326	-0.0553894	
-0.183716	-0.0582886	
-0.186462	-0.059967	
-0.187683	-0.06073	
-0.19104	-0.0608826	
-0.193481	-0.0613403	
-0.194397	-0.0627136	
-0.193787	-0.0630188	
-0.196533	-0.0631714	
-0.197754	-0.0639343	
-0.198975	-0.0645447	
-0.201111	-0.0631714	
-0.203552	-0.0601196	
-0.205994	-0.0564575	
-0.208435	-0.0532532	
-0.20874	-0.0505066	
-0.20874	-0.0476074	
-0.20874	-0.0436401	
-0.20874	-0.0410461	
-0.210571	-0.0379944	
-0.213013	-0.0350952	
-0.213623	-0.0325012	
-0.213928	-0.0286865	
-0.213623	-0.0245667	
-0.215759	-0.0221252	
-0.21759	-0.0209045	
-0.219116	-0.019989	
-0.220337	-0.0216675	
-0.222778	-0.0239563	
-0.223389	-0.0262451	
-0.22583	-0.0286865	
-0.227661	-0.0309753	
-0.228271	-0.0328064	
-0.228271	-0.03479	
-0.228271	-0.037384	
-0.227966	-0.0386047	
-0.229187	-0.0410461	
-0.228882	-0.0428772	
-0.230103	-0.0434875	
-0.232239	-0.0437927	
-0.232849	-0.0434875	
-0.232849	-0.0434875	
-0.234985	-0.0442505	
-0.237122	-0.0456238	
-0.237427	-0.045166	
-0.238037	-0.0437927	
-0.239868	-0.0428772	
-0.242615	-0.0408936	
-0.243225	-0.0392151	
-0.242615	-0.0384521	
-0.245361	-0.039978	
-0.247192	-0.0430298	
-0.248108	-0.0466919	
-0.247803	-0.0509644	
-0.249634	-0.0550842	
-0.25238	-0.0578308	
-0.254822	-0.0605774	
-0.256653	-0.0630188	
-0.257568	-0.0654602	
-0.26001	-0.0679016	
-0.26123	-0.0706482	
-0.262146	-0.0727844	
-0.265198	-0.0744629	
-0.266724	-0.0753784	
-0.26947	-0.0743103	
-0.271301	-0.072937	
-0.274963	-0.0704956	
-0.277405	-0.0680542	
-0.277405	-0.0662231	
-0.279541	-0.0648499	
-0.281677	-0.0631714	
-0.284119	-0.059967	
-0.286255	-0.0564575	
-0.289001	-0.0549316	
-0.293884	-0.0559998	
-0.296326	-0.058136	
-0.297546	-0.0608826	
-0.299377	-0.0628662	
-0.301514	-0.0650024	
-0.303955	-0.0646973	
-0.306702	-0.0630188	
-0.306396	-0.0596619	
-0.306702	-0.0561523	
-0.308838	-0.0532532	
-0.310974	-0.0500488	
-0.313416	-0.0463867	
-0.315552	-0.042572	
-0.316162	-0.0396729	
-0.319214	-0.0387573	
-0.32135	-0.0379944	
-0.323792	-0.0358582	
-0.326233	-0.0337219	
-0.326843	-0.0317383	
-0.328369	-0.0314331	
-0.330505	-0.0311279	
-0.331421	-0.0306702	
-0.333252	-0.0286865	
-0.335083	-0.0270081	
-0.336609	-0.0263977	
-0.338135	-0.0262451	
-0.340881	-0.0271606	
-0.343323	-0.0285339	
-0.345459	-0.0288391	
-0.346069	-0.0274658	
-0.346069	-0.0233459	
-0.345459	-0.0166321	
-0.348511	-0.00961304	
-0.350037	-0.00427246	
-0.351257	0.000305176	
-0.353088	0.00549316	
-0.354614	0.00991821	
-0.355835	0.0132751	
-0.35553	0.0166321	
-0.358887	0.0172424	
-0.362854	0.0172424	
-0.36438	0.0140381	
-0.366211	0.00976563	
-0.368042	0.00274658	
-0.369873	-0.00473022	
-0.370789	-0.0151062	
-0.370483	-0.0263977	
-0.371094	-0.0387573	
-0.371094	-0.0502014	
-0.371094	-0.0604248	
-0.371399	-0.0706482	
-0.370789	-0.0796509	
-0.370789	-0.0868225	
-0.370789	-0.0930786	
-0.378723	-0.0993347	
-0.387573	-0.104675	
-0.392151	-0.10849	
-0.394287	-0.108643	
-0.395203	-0.106659	
-0.397644	-0.101166	
-0.39917	-0.0939941	
-0.401611	-0.0854492	
-0.404358	-0.0775146	
-0.404663	-0.0717163	
-0.407104	-0.0679016	
-0.408936	-0.0663757	
-0.411987	-0.0654602	
-0.414124	-0.065155	
-0.415955	-0.0628662	
-0.418701	-0.0616455	
-0.419006	-0.062561	
-0.422058	-0.0630188	
-0.423279	-0.063324	
-0.4245	-0.0631714	
-0.426331	-0.0624084	
-0.430603	-0.0613403	
-0.433655	-0.0604248	
-0.43457	-0.06073	
-0.436401	-0.062561	
-0.438843	-0.0637817	
-0.440674	-0.065918	
-0.44342	-0.0679016	
-0.444336	-0.0698853	
-0.443726	-0.0697327	
-0.446472	-0.0674438	
-0.447998	-0.0648499	
-0.449219	-0.0604248	
-0.45105	-0.0556946	
-0.452881	-0.0511169	
-0.454102	-0.0482178	
-0.453796	-0.0462341	
-0.456238	-0.0469971	
-0.457764	-0.0476074	
-0.461121	-0.0476074	
-0.462646	-0.0463867	
-0.463867	-0.0460815	
-0.465698	-0.0466919	
-0.46814	-0.0474548	
-0.468445	-0.0476074	
-0.470581	-0.045929	
-0.472412	-0.0436401	
-0.476074	-0.0419617	
-0.477905	-0.0404358	
-0.478821	-0.038147	
-0.479126	-0.0369263	
-0.480957	-0.035553	
-0.484619	-0.0340271	
-0.487671	-0.0337219	
-0.487976	-0.0334167	
-0.488281	-0.032959	
-0.490723	-0.0317383	
-0.493164	-0.0315857	
-0.4953	-0.0309753	
-0.497131	-0.0312805	
-0.500183	-0.032196	
-0.502625	-0.0331116	
-0.502319	-0.0341797	
-0.504761	-0.0369263	
-0.506897	-0.0398254	
-0.510254	-0.0421143	
-0.512085	-0.0456238	
-0.513306	-0.0491333	
-0.514526	-0.0527954	
-0.516968	-0.0547791	
-0.518494	-0.0553894	
-0.519714	-0.0552368	
-0.523071	-0.0532532	
-0.523376	-0.0505066	
-0.525208	-0.0491333	
-0.527344	-0.0479126	
-0.529785	-0.0465393	
-0.531921	-0.0454712	
-0.533142	-0.042572	
-0.534668	-0.0387573	
-0.53772	-0.0358582	
-0.53772	-0.0337219	
-0.53772	-0.0312805	
-0.53772	-0.0302124	
-0.539246	-0.0314331	
-0.541687	-0.0334167	
-0.542908	-0.035553	
-0.542297	-0.0360107	
-0.543213	-0.0360107	
-0.545044	-0.0361633	
-0.546265	-0.0358582	
-0.54718	-0.0372314	
-0.54718	-0.0411987	
-0.549622	-0.0460815	
-0.551147	-0.0509644	
-0.551758	-0.0541687	
-0.552063	-0.0556946	
-0.552979	-0.0564575	
-0.55481	-0.0572205	
-0.556641	-0.0559998	
-0.556641	-0.055542	
-0.556641	-0.0553894	
-0.556946	-0.0532532	
-0.559082	-0.0532532	
-0.561523	-0.0541687	
-0.562134	-0.055542	
-0.563965	-0.0564575	
-0.563049	-0.0585938	
-0.56488	-0.0611877	
-0.566101	-0.0650024	
-0.567017	-0.0671387	
-0.568848	-0.0672913	
-0.570984	-0.0654602	
-0.571899	-0.062561	
-0.572205	-0.0585938	
-0.574036	-0.0556946	
-0.575867	-0.0538635	
-0.576477	-0.0531006	
-0.578613	-0.0535583	
-0.581055	-0.0534058	
-0.58197	-0.0532532	
-0.581665	-0.0526428	
-0.584106	-0.0500488	
-0.585938	-0.0457764	
-0.585938	-0.0408936	
-0.588379	-0.0366211	
-0.590515	-0.0337219	
-0.594177	-0.0311279	
-0.596008	-0.0288391	
-0.596924	-0.0260925	
-0.59845	-0.0242615	
-0.600586	-0.0230408	
-0.603638	-0.022583	
-0.605469	-0.0230408	
-0.608826	-0.0236511	
-0.610046	-0.0241089	
-0.613098	-0.0239563	
-0.614929	-0.0244141	
-0.617981	-0.0263977	
-0.619812	-0.0283813	
-0.621643	-0.0318909	
-0.623169	-0.0349426	
-0.625	-0.0364685	
-0.626221	-0.0364685	
-0.627747	-0.0340271	
-0.630493	-0.0312805	
-0.630188	-0.0296021	
-0.632935	-0.0274658	
-0.634766	-0.0228882	
-0.635376	-0.0164795	
-0.637817	-0.00946045	
-0.639343	-0.00442505	
-0.640869	0.000762939	
-0.6427	0.00473022	
-0.646667	0.0062561	
-0.650024	0.00457764	
-0.650024	-0.000305176	
-0.653076	-0.00823975	
-0.654907	-0.0189209	
-0.657349	-0.0315857	
-0.65979	-0.0428772	
-0.662537	-0.0526428	
-0.664978	-0.059967	
-0.665283	-0.0650024	
-0.667114	-0.0672913	
-0.672913	-0.068512	
-0.674438	-0.0704956	
-0.677185	-0.0727844	
-0.679016	-0.0761414	
-0.679932	-0.0804138	
-0.682373	-0.0846863	
-0.684509	-0.0874329	
-0.687256	-0.0897217	
-0.688782	-0.0917053	
-0.690002	-0.0915527	
-0.692444	-0.090332	
-0.69458	-0.0895691	
-0.697021	-0.0875854	
-0.698853	-0.0843811	
-0.701599	-0.0802612	
-0.704041	-0.0773621	
-0.706177	-0.0747681	
-0.708313	-0.071106	
-0.708618	-0.0683594	
-0.709534	-0.065918	
-0.71106	-0.0656128	
-0.713501	-0.0656128	
-0.715942	-0.0660706	
-0.72113	-0.0675964	
-0.722656	-0.0672913	
-0.723877	-0.0653076	
-0.726013	-0.0624084	
-0.728149	-0.0585938	
-0.72937	-0.0558472	
-0.730591	-0.0535583	
-0.733337	-0.0505066	
-0.733337	-0.0491333	
-0.735779	-0.0469971	
-0.740051	-0.0447083	
-0.742188	-0.0437927	
-0.743713	-0.0427246	
-0.744019	-0.040741	
-0.74585	-0.0384521	
-0.747986	-0.0352478	
-0.748596	-0.0308228	
-0.751038	-0.0256348	
-0.753174	-0.0193787	
-0.75592	-0.0149536	
-0.757751	-0.0114441	
-0.759888	-0.0102234	
-0.762634	-0.00976563	
-0.765686	-0.012207	
-0.767517	-0.0163269	
-0.767822	-0.0189209	
-0.770264	-0.0213623	
-0.7724	-0.0230408	
-0.77301	-0.0231934	
-0.775146	-0.0212097	
-0.777283	-0.0187683	
-0.778198	-0.0170898	
-0.780029	-0.0169373	
-0.782166	-0.0163269	
-0.784912	-0.0172424	
-0.786743	-0.019989	
-0.78949	-0.0234985	
-0.791931	-0.0254822	
-0.795898	-0.0259399	
-0.796814	-0.0257874	
-0.799866	-0.0242615	
-0.802307	-0.0242615	
-0.802307	-0.0242615	
-0.805054	-0.0265503	
-0.80719	-0.0297546	
-0.807495	-0.0340271	
-0.809631	-0.0387573	
-0.811462	-0.0453186	
-0.812073	-0.0526428	
-0.814819	-0.0587463	
-0.81665	-0.065918	
-0.817566	-0.0721741	
-0.819397	-0.0769043	
-0.821533	-0.0784302	
-0.821838	-0.0782776	
-0.824585	-0.0776672	
-0.826416	-0.0779724	
-0.827332	-0.0784302	
-0.829163	-0.0804138	
-0.831604	-0.0819397	
-0.83252	-0.0822449	
-0.83252	-0.0830078	
-0.835266	-0.0819397	
-0.836487	-0.0801086	
-0.837402	-0.0778198	
-0.837097	-0.0752258	
-0.836792	-0.0721741	
-0.838623	-0.0668335	
-0.841675	-0.0608826	
-0.841675	-0.0556946	
-0.842285	-0.0515747	
-0.844421	-0.0492859	
-0.846558	-0.0480652	
-0.848999	-0.0491333	
-0.851746	-0.0495911	
-0.852051	-0.0486755	
-0.852051	-0.0485229	
-0.853577	-0.0483704	
-0.856323	-0.0483704	
-0.856018	-0.0479126	
-0.856934	-0.0460815	
-0.85907	-0.0437927	
-0.860596	-0.0422668	
-0.863953	-0.0396729	
-0.866699	-0.038147	
-0.86853	-0.0370789	
-0.870361	-0.038147	
-0.870972	-0.0386047	
-0.873718	-0.0384521	
-0.875549	-0.0389099	
-0.877686	-0.0384521	
-0.880432	-0.0392151	
-0.880737	-0.040741	
-0.883484	-0.043335	
-0.88562	-0.0460815	
-0.888367	-0.0480652	
-0.890808	-0.0488281	
-0.891113	-0.0505066	
-0.892944	-0.0511169	
-0.895081	-0.0511169	
-0.897827	-0.0498962	
-0.900879	-0.0489807	
-0.903015	-0.0473022	
-0.904846	-0.0447083	
-0.907898	-0.0434875	
-0.910034	-0.0427246	
-0.912781	-0.0415039	
-0.914917	-0.0419617	
-0.915222	-0.0428772	
-0.917358	-0.0427246	
-0.9198	-0.0413513	
-0.922546	-0.0396729	
-0.924988	-0.0349426	
-0.927429	-0.0285339	
-0.929871	-0.0215149	
-0.930176	-0.0138855	
-0.933228	-0.00656128	
-0.934448	0.000610352	
-0.937805	0.00717163	
-0.939331	0.0114441	
-0.942078	0.0128174	
-0.944214	0.0114441	
-0.944824	0.00701904	
-0.94696	-0.000457764	
-0.949707	-0.0100708	
-0.950012	-0.0215149	
-0.952148	-0.0331116	
-0.953979	-0.0430298	
-0.957031	-0.0502014	
-0.959167	-0.0550842	
-0.961914	-0.058136	
-0.963745	-0.0605774	
-0.964661	-0.0642395	
-0.966797	-0.0682068	
-0.968933	-0.0717163	
-0.971375	-0.0740051	
-0.973511	-0.0762939	
-0.975342	-0.078125	
-0.974731	-0.0794983	
-0.976257	-0.0793457	
-0.98114	-0.0767517	
-0.983582	-0.0724792	
-0.986938	-0.0680542	
-0.98877	-0.063324	
-0.991516	-0.0587463	
-0.993652	-0.0556946	
-0.994263	-0.0531006	
-0.997009	-0.0506592	
-0.99823	-0.0480652	
-1.00098	-0.0453186	
-1.00372	-0.0408936	
-1.00647	-0.0369263	
-1.00861	-0.0344849	
-1.00922	-0.0352478	
-1.01135	-0.0384521	
-1.01288	-0.0427246	
-1.0141	-0.0463867	
-1.01532	-0.0502014	
-1.01868	-0.0521851	
-1.02142	-0.0531006	
-1.02264	-0.0531006	
-1.02264	-0.0531006	
-1.0257	-0.0527954	
-1.02783	-0.0531006	
-1.02875	-0.0526428	
-1.03088	-0.0505066	
-1.0321	-0.0482178	
-1.03516	-0.045929	
-1.0376	-0.0428772	
-1.0379	-0.039978	
-1.0379	-0.0363159	
-1.04095	-0.0341797	
-1.04218	-0.030365	
-1.04309	-0.0254822	
-1.04492	-0.0193787	
-1.04736	-0.0143433	
-1.0498	-0.01297	
-1.05194	-0.0135803	
-1.05286	-0.0144958	
-1.05591	-0.0166321	
-1.05682	-0.0187683	
-1.05865	-0.0209045	
-1.05988	-0.0216675	
-1.06201	-0.0239563	
-1.06262	-0.0260925	
-1.06506	-0.0286865	
-1.0672	-0.0305176	
-1.06781	-0.0309753	
-1.06781	-0.030365	
-1.06995	-0.0285339	
-1.07178	-0.0263977	
-1.073	-0.0241089	
-1.07269	-0.0215149	
-1.07544	-0.0190735	
-1.07697	-0.0178528	
-1.07727	-0.0193787	
-1.07758	-0.0215149	
-1.08002	-0.0234985	
-1.08185	-0.0238037	
-1.08215	-0.0234985	
-1.08185	-0.0230408	
-1.08429	-0.0212097	
-1.08673	-0.0190735	
-1.08734	-0.0158691	
-1.09009	-0.0119019	
-1.09131	-0.00930786	
-1.09253	-0.00701904	
-1.09222	-0.00656128	
-1.09436	-0.00793457	
-1.09711	-0.0112915	
-1.0965	-0.0152588	
-1.09985	-0.0204468	
-1.10138	-0.0248718	
-1.10168	-0.0288391	
-1.10229	-0.032959	
-1.10413	-0.0352478	
-1.10596	-0.0367737	
-1.10687	-0.038147	
-1.1087	-0.0405884	
-1.11084	-0.0410461	
-1.11176	-0.0422668	
-1.1145	-0.0430298	
-1.11603	-0.0428772	
-1.11877	-0.039978	
-1.12061	-0.0366211	
-1.12122	-0.0320435	
-1.12183	-0.0263977	
-1.12213	-0.0213623	
-1.12244	-0.0154114	
-1.12427	-0.00961304	
-1.1261	-0.00427246	
-1.12854	0	
-1.13068	0.00320435	
-1.13159	0.00564575	
-1.13159	0.00869751	
-1.13373	0.0132751	
-1.13586	0.0172424	
-1.13647	0.0209045	
-1.13831	0.0238037	
-1.14075	0.0248718	
-1.14319	0.0256348	
-1.14594	0.0270081	
-1.14624	0.0285339	
-1.14685	0.0309753	
-1.14899	0.0350952	
-1.15112	0.0404358	
-1.15387	0.0462341	
-1.15601	0.0514221	
-1.15601	0.0531006	
-1.15845	0.0544739	
-1.16089	0.055542	
-1.16089	0.0541687	
-1.16364	0.0521851	
-1.16608	0.0517273	
-1.16577	0.0514221	
-1.16821	0.0492859	
-1.17035	0.0460815	
-1.17065	0.0411987	
-1.17371	0.0360107	
-1.17523	0.0318909	
-1.17523	0.027771	
-1.17645	0.0248718	
-1.17859	0.0228882	
-1.18073	0.0227356	
-1.18042	0.022583	
-1.18103	0.0227356	
-1.18317	0.0227356	
-1.185	0.022583	
-1.18561	0.0228882	
-1.18774	0.0238037	
-1.18958	0.025177	
-1.19263	0.0271606	
-1.19507	0.0305176	
-1.19446	0.0338745	
-1.19751	0.035553	
-1.19934	0.037384	
-1.19995	0.0401306	
-1.2027	0.0421143	
-1.20453	0.0442505	
-1.20667	0.0454712	
-1.20972	0.0439453	
-1.21002	0.0416565	
-1.21246	0.0390625	
-1.2146	0.035553	
-1.21704	0.0326538	
-1.21918	0.0306702	
-1.22253	0.0300598	
-1.22406	0.0292969	
-1.22528	0.0279236	
-1.22528	0.0271606	
-1.22681	0.025177	
-1.22864	0.022583	
-1.23199	0.020752	
-1.23383	0.0201416	
-1.23474	0.0216675	
-1.23688	0.0254822	
-1.23932	0.0309753	
-1.24176	0.0376892	
-1.24359	0.0447083	
-1.24695	0.0521851	
-1.24847	0.0587463	
-1.25092	0.0621033	
-1.25397	0.0601196	
-1.25427	0.052948	
-1.25641	0.0439453	
-1.25854	0.0344849	
-1.26068	0.0254822	
-1.26312	0.0172424	
-1.26404	0.0108337	
-1.26617	0.0050354	
-1.26862	-0.00198364	
-1.26892	-0.00961304	
-1.27075	-0.0160217	
-1.27319	-0.020752	
-1.27594	-0.0239563	
-1.27808	-0.0263977	
-1.27899	-0.0280762	
-1.28113	-0.0288391	
-1.28296	-0.0280762	
-1.28571	-0.0268555	
-1.28784	-0.0259399	
-1.28815	-0.0270081	
-1.29089	-0.0286865	
-1.29059	-0.0312805	
-1.2915	-0.0337219	
-1.29333	-0.0361633	
-1.29303	-0.0386047	
-1.29608	-0.0418091	
-1.29852	-0.0469971	
-1.29913	-0.0544739	
-1.30096	-0.0631714	
-1.30341	-0.0697327	
-1.30371	-0.0738525	
-1.30371	-0.0741577	
-1.30615	-0.0726318	
-1.30829	-0.071106	
-1.31073	-0.0706482	
-1.315	-0.070343	
-1.31775	-0.070343	
-1.31836	-0.0701904	
-1.31836	-0.0671387	
-1.32111	-0.0637817	
-1.32263	-0.06073	
-1.32324	-0.0585938	
-1.32294	-0.0578308	
-1.32538	-0.0563049	
-1.32721	-0.0549316	
-1.32721	-0.0537109	
-1.32996	-0.0532532	
-1.33179	-0.0531006	
-1.3324	-0.0537109	
-1.33514	-0.0566101	
-1.33667	-0.06073	
-1.33789	-0.0654602	
-1.33972	-0.0704956	
-1.34155	-0.0749207	
-1.34277	-0.0778198	
-1.34277	-0.0805664	
-1.34277	-0.0827026	
-1.34216	-0.0849915	
-1.34277	-0.0881958	
-1.34491	-0.0920105	
-1.34674	-0.0950623	
-1.34766	-0.0965881	
-1.34827	-0.0973511	
-1.34918	-0.0979614	
-1.35162	-0.0987244	
-1.35223	-0.0973511	
-1.35254	-0.0939941	
-1.35376	-0.0895691	
-1.35651	-0.0849915	
-1.35742	-0.0791931	
-1.35712	-0.0727844	
-1.36017	-0.065155	
-1.36169	-0.0584412	
-1.3623	-0.0538635	
-1.36292	-0.0512695	
-1.36444	-0.0482178	
-1.36658	-0.0456238	
-1.36932	-0.0439453	
-1.37115	-0.0428772	
-1.37207	-0.0413513	
-1.37268	-0.0410461	
-1.37421	-0.0418091	
-1.37665	-0.042572	
-1.37695	-0.0440979	
-1.37604	-0.0469971	
-1.37939	-0.0505066	
-1.38153	-0.0532532	
-1.38184	-0.0558472	
-1.38367	-0.0592041	
-1.38611	-0.0634766	
-1.38702	-0.0682068	
-1.38885	-0.0714111	
-1.39099	-0.0740051	
-1.39404	-0.0769043	
-1.39618	-0.0775146	
-1.39679	-0.0779724	
-1.39862	-0.0772095	
-1.40045	-0.0761414	
-1.40381	-0.0753784	
-1.40594	-0.0756836	
-1.40869	-0.0779724	
-1.41083	-0.0794983	
-1.41357	-0.0802612	
-1.41541	-0.0801086	
-1.41632	-0.0790405	
-1.41876	-0.0769043	
-1.41998	-0.0738525	
-1.4209	-0.0724792	
-1.42303	-0.0714111	
-1.42609	-0.0698853	
-1.42822	-0.067749	
-1.4325	-0.0662231	
-1.4325	-0.0648499	
-1.43372	-0.0627136	
-1.43555	-0.0604248	
-1.43524	-0.058136	
-1.43799	-0.0556946	
-1.44043	-0.0531006	
-1.44012	-0.0505066	
-1.44287	-0.0489807	
-1.44531	-0.0483704	
-1.44836	-0.0485229	
-1.4502	-0.0492859	
-1.45172	-0.050354	
-1.45264	-0.0509644	
-1.45508	-0.0512695	
-1.45569	-0.0535583	
-1.45782	-0.0559998	
-1.46027	-0.0582886	
-1.46088	-0.06073	
-1.46271	-0.0628662	
-1.46484	-0.0656128	
-1.46576	-0.0672913	
-1.4682	-0.0679016	
-1.47034	-0.0680542	
-1.47217	-0.0686646	
-1.47186	-0.0701904	
-1.47339	-0.0721741	
-1.47522	-0.0720215	
-1.47552	-0.0709534	
-1.47705	-0.0697327	
-1.47949	-0.0682068	
-1.48224	-0.0653076	
-1.48499	-0.0622559	
-1.48499	-0.057373	
-1.48712	-0.0505066	
-1.48682	-0.0431824	
-1.48804	-0.0358582	
-1.48926	-0.0296021	
-1.49017	-0.0260925	
-1.49261	-0.0250244	
-1.49384	-0.0265503	
-1.49506	-0.030365	
-1.49689	-0.0360107	
-1.49872	-0.0410461	
-1.49994	-0.0453186	
-1.50177	-0.0482178	
-1.5036	-0.0502014	
-1.50482	-0.0514221	
-1.50421	-0.0543213	
-1.50482	-0.058136	
-1.50452	-0.0631714	
-1.50665	-0.0688171	
-1.51093	-0.075531	
-1.51398	-0.0822449	
-1.51367	-0.0871277	
-1.51459	-0.0892639	
-1.51642	-0.0892639	
-1.51825	-0.0868225	
-1.52191	-0.0822449	
-1.52405	-0.0782776	
-1.52435	-0.0758362	
-1.52466	-0.0747681	
-1.52588	-0.0733948	
-1.52863	-0.0738525	
-1.52954	-0.0747681	
-1.53137	-0.0752258	
-1.53442	-0.0746155	
-1.53656	-0.0723267	
-1.5387	-0.0712585	
-1.54144	-0.0697327	
-1.54358	-0.067749	
-1.54358	-0.0648499	
-1.54449	-0.0601196	
-1.54572	-0.0558472	
-1.54877	-0.0526428	
-1.54907	-0.0485229	
-1.5509	-0.045929	
-1.55396	-0.042572	
-1.55396	-0.0389099	
-1.55365	-0.0361633	
-1.5564	-0.0332642	
-1.55823	-0.0320435	
-1.55853	-0.0311279	
-1.56036	-0.0312805	
-1.56342	-0.0312805	
-1.56342	-0.0320435	
-1.56311	-0.032959	
-1.56342	-0.0326538	
-1.56494	-0.0302124	
-1.56769	-0.0254822	
-1.56952	-0.0190735	
-1.56799	-0.0134277	
-1.57074	-0.00671387	
-1.57288	-0.00183105	
-1.57318	0.00167847	
-1.57623	0.00305176	
-1.57684	0.00366211	
-1.57867	0.00595093	
-1.57806	0.00793457	
-1.5802	0.0112915	
-1.58295	0.0158691	
-1.58295	0.0202942	
-1.58325	0.0270081	
-1.58569	0.0346375	
-1.58752	0.0419617	
-1.59058	0.0498962	
-1.59241	0.0572205	
-1.59271	0.0636292	
-1.59363	0.070343	
-1.59515	0.078125	
-1.59668	0.0845337	
-1.59729	0.0920105	
-1.60065	0.100555	
-1.60278	0.107422	
-1.60492	0.113525	
-1.60583	0.119934	
-1.60645	0.125427	
-1.60767	0.130463	
-1.61072	0.135956	
-1.61194	0.141907	
-1.61346	0.14679	
-1.61499	0.149689	
-1.61682	0.153656	
-1.61957	0.160522	
-1.62201	0.171356	
-1.62231	0.184937	
-1.62476	0.200958	
-1.62689	0.218658	
-1.6275	0.237427	
-1.62933	0.259857	
-1.63116	0.285187	
-1.63208	0.310974	
-1.63544	0.336304	
-1.63666	0.362244	
-1.63727	0.386658	
-1.63971	0.407104	
-1.64154	0.425873	
-1.64185	0.4422	
-1.64398	0.457764	
-1.64642	0.471649	
-1.64917	0.484619	
-1.65192	0.496063	
-1.65192	0.506439	
-1.65344	0.514526	
-1.65649	0.522766	
-1.65863	0.533295	
-1.66107	0.543976	
-1.66077	0.556488	
-1.66351	0.570374	
-1.66534	0.582123	
-1.66656	0.589752	
-1.66809	0.592804	
-1.67084	0.589905	
-1.67145	0.583801	
-1.67114	0.575104	
-1.67328	0.565643	
-1.67603	0.554199	
-1.67664	0.539551	
-1.67633	0.523071	
-1.67908	0.505829	
-1.68091	0.483551	
-1.68121	0.45517	
-1.68091	0.420532	
-1.68304	0.38269	
-1.6861	0.344391	
-1.6861	0.308838	
-1.68671	0.278931	
-1.68884	0.252838	
-1.69067	0.23407	
-1.69067	0.221405	
-1.69342	0.213776	
-1.69586	0.209045	
-1.69586	0.205383	
-1.6983	0.200958	
-1.70013	0.196075	
-1.70105	0.19043	
-1.70105	0.183563	
-1.70288	0.176544	
-1.70502	0.168152	
-1.70807	0.158081	
-1.71051	0.145721	
-1.71204	0.131531	
-1.71295	0.116272	
-1.71326	0.0990295	
-1.71753	0.0830078	
-1.71967	0.0689697	
-1.72028	0.0569153	
-1.72302	0.0469971	
-1.72485	0.0390625	
-1.72516	0.0300598	
-1.7276	0.0222778	
-1.73004	0.0151062	
-1.73065	0.00747681	
-1.73096	0.000305176	
-1.73279	-0.00778198	
-1.73523	-0.0169373	
-1.73523	-0.0280762	
-1.73737	-0.0427246	
-1.7392	-0.059967	
-1.74286	-0.0799561	
-1.745	-0.104675	
-1.745	-0.129852	
-1.7453	-0.152893	
-1.745	-0.170135	
-1.74713	-0.180206	
-1.74957	-0.183716	
-1.75079	-0.180664	
-1.75171	-0.172424	
-1.75446	-0.161743	
-1.75476	-0.149841	
-1.75446	-0.136261	
-1.7572	-0.122681	
-1.75934	-0.1091	
-1.76025	-0.0968933	
-1.76147	-0.0862122	
-1.76392	-0.0761414	
-1.76514	-0.067749	
-1.76666	-0.0602722	
-1.7688	-0.0535583	
-1.77002	-0.0485229	
-1.77246	-0.0430298	
-1.77429	-0.0390625	
-1.77673	-0.0354004	
-1.77917	-0.0326538	
-1.77979	-0.0315857	
-1.78162	-0.0309753	
-1.78436	-0.032959	
-1.78406	-0.0372314	
-1.7865	-0.0434875	
-1.78894	-0.0482178	
-1.78955	-0.0538635	
-1.79138	-0.0576782	
-1.79382	-0.06073	
-1.79382	-0.062561	
-1.79565	-0.0631714	
-1.7981	-0.0624084	
-1.79901	-0.0604248	
-1.79962	-0.0585938	
-1.80084	-0.0582886	
-1.80267	-0.0575256	
-1.80481	-0.0564575	
-1.8042	-0.0559998	
-1.8045	-0.055542	
-1.80634	-0.0549316	
-1.80817	-0.0531006	
-1.80908	-0.0505066	
-1.80878	-0.0488281	
-1.80847	-0.0483704	
-1.81122	-0.0491333	
-1.81396	-0.0500488	
-1.81396	-0.0508118	
-1.81641	-0.0509644	
-1.8161	-0.0508118	
-1.81641	-0.0514221	
-1.81824	-0.0540161	
-1.81915	-0.0561523	
-1.82098	-0.0576782	
-1.82251	-0.058136	
-1.82404	-0.0582886	
-1.82312	-0.0576782	
-1.82587	-0.0561523	
-1.8277	-0.0549316	
-1.82861	-0.0540161	
-1.82892	-0.0524902	
-1.82831	-0.0511169	
-1.83105	-0.0502014	
-1.83319	-0.0473022	
-1.8338	-0.0437927	
-1.8338	-0.0410461	
-1.8338	-0.0392151	
-1.83594	-0.0376892	
-1.83807	-0.0366211	
-1.83838	-0.0361633	
-1.83868	-0.0354004	
-1.83838	-0.0332642	
-1.84052	-0.0320435	
-1.84296	-0.0308228	
-1.84357	-0.0305176	
-1.84509	-0.0289917	
-1.84784	-0.0280762	
-1.84814	-0.0267029	
-1.84998	-0.0268555	
-1.85242	-0.0288391	
-1.85303	-0.0314331	
-1.85272	-0.032959	
-1.85547	-0.0332642	
-1.8573	-0.0323486	
-1.85822	-0.0282288	
-1.85791	-0.0227356	
-1.85974	-0.0166321	
-1.86249	-0.0112915	
-1.86523	-0.00656128	
-1.86462	-0.00244141	
-1.86371	0.000762939	
-1.86493	0.00152588	
-1.86737	-0.00137329	
-1.86798	-0.00808716	
-1.87012	-0.0177002	
-1.87256	-0.0302124	
-1.87286	-0.0439453	
-1.87286	-0.0563049	
-1.87256	-0.0674438	
-1.87286	-0.075531	
-1.87469	-0.083313	
-1.87714	-0.0898743	
-1.87805	-0.0939941	
-1.87683	-0.0967407	
-1.87958	-0.0970459	
-1.88232	-0.0970459	
-1.88293	-0.0975037	
-1.88293	-0.0965881	
-1.88324	-0.0946045	
-1.88538	-0.0921631	
-1.8866	-0.0892639	
-1.88751	-0.0849915	
-1.88751	-0.0799561	
-1.8869	-0.0756836	
-1.88873	-0.072937	
-1.89148	-0.0708008	
-1.89209	-0.0704956	
-1.89453	-0.071106	
-1.89484	-0.0724792	
-1.89545	-0.072937	
-1.89758	-0.0735474	
-1.89728	-0.0741577	
-1.89941	-0.0732422	
-1.90186	-0.0717163	
-1.90216	-0.0691223	
-1.90216	-0.0672913	
-1.9046	-0.0660706	
-1.90643	-0.0665283	
-1.90887	-0.0668335	
-1.91162	-0.0666809	
-1.91132	-0.0663757	
-1.91223	-0.0631714	
-1.91467	-0.0604248	
-1.91681	-0.0579834	
-1.91711	-0.0558472	
-1.9165	-0.0538635	
-1.91772	-0.0531006	
-1.91925	-0.0517273	
-1.92139	-0.0497437	
-1.9223	-0.04776	
-1.92413	-0.0448608	
-1.92596	-0.0413513	
-1.92657	-0.0382996	
-1.92719	-0.0369263	
-1.92932	-0.0360107	
-1.93146	-0.0354004	
-1.93146	-0.0332642	
-1.93146	-0.0309753	
-1.9342	-0.0285339	
-1.93604	-0.0268555	
-1.93665	-0.0248718	
-1.93665	-0.022583	
-1.93665	-0.0209045	
-1.93909	-0.0187683	
-1.94122	-0.0169373	
-1.94122	-0.017395	
-1.94122	-0.0187683	
-1.94336	-0.0189209	
-1.94397	-0.0187683	
-1.94458	-0.0189209	
-1.94611	-0.0189209	
-1.94641	-0.018158	
-1.94763	-0.0170898	
-1.94702	-0.0160217	
-1.9458	-0.0154114	
-1.94672	-0.0169373	
-1.94641	-0.0201416	
-1.94885	-0.0242615	
-1.95068	-0.0282288	
-1.94946	-0.0312805	
-1.94946	-0.0338745	
-1.95038	-0.035553	
-1.9516	-0.0358582	
-1.95129	-0.0352478	
-1.95129	-0.0341797	
-1.95129	-0.0331116	
-1.95129	-0.0315857	
-1.95313	-0.0312805	
-1.95313	-0.0305176	
-1.95313	-0.0283813	
-1.95557	-0.0254822	
-1.95587	-0.020752	
-1.95618	-0.0141907	
-1.95587	-0.00869751	
-1.95648	-0.00305176	
-1.95587	0.00366211	
-1.95801	0.0109863	
-1.96014	0.0172424	
-1.96075	0.0215149	
-1.96075	0.0218201	
-1.96381	0.0201416	
-1.96533	0.0160217	
-1.96533	0.0102234	
-1.96625	0.00442505	
-1.96594	-0.00167847	
-1.96869	-0.00564575	
-1.9696	-0.00732422	
-1.97052	-0.00839233	
-1.97296	-0.00900269	
-1.97266	-0.00991821	
-1.97113	-0.0128174	
-1.97083	-0.0175476	
-1.97296	-0.0233459	
-1.9751	-0.0289917	
-1.97571	-0.0325012	
-1.9754	-0.0332642	
-1.97784	-0.0337219	
-1.98029	-0.0335693	
-1.98059	-0.0334167	
-1.98059	-0.0346375	
-1.98059	-0.0354004	
-1.98334	-0.0358582	
-1.98486	-0.0367737	
-1.98547	-0.0382996	
-1.98792	-0.0382996	
-1.99005	-0.0379944	
-1.9931	-0.035553	
-1.99463	-0.0334167	
-1.99493	-0.0308228	
-1.99524	-0.0283813	
-1.99768	-0.0267029	
-1.99951	-0.0265503	
-2.00012	-0.0248718	
-2.00226	-0.0216675	
-2.00378	-0.019989	
-2.00531	-0.0180054	
-2.00714	-0.0163269	
-2.00989	-0.014801	
-2.01019	-0.0131226	
-2.01294	-0.0117493	
-2.01416	-0.0109863	
-2.01569	-0.00976563	
-2.01752	-0.00915527	
-2.01996	-0.00900269	
-2.02209	-0.00900269	
-2.02454	-0.00900269	
-2.02484	-0.0088501	
-2.02728	-0.00991821	
-2.02911	-0.0117493	
-2.02972	-0.0137329	
-2.03003	-0.0166321	
-2.03003	-0.0184631	
-2.03217	-0.0189209	
-2.03217	-0.0178528	
-2.03308	-0.0163269	
-2.03369	-0.0123596	
-2.03674	-0.00640869	
-2.03888	0.00198364	
-2.0401	0.010376	
-2.03949	0.018158	
-2.04224	0.0247192	
-2.04376	0.0294495	
-2.04437	0.0326538	
-2.04437	0.0343323	
-2.04468	0.0366211	
-2.04742	0.0396729	
-2.04926	0.0421143	
-2.04956	0.0453186	
-2.04926	0.0500488	
-2.05231	0.0537109	
-2.05353	0.0567627	
-2.05383	0.0585938	
-2.05475	0.0590515	
-2.05444	0.0587463	
-2.05597	0.0585938	
-2.05811	0.0549316	
-2.05902	0.0494385	
-2.06146	0.0442505	
-2.06329	0.0387573	
-2.06421	0.0331116	
-2.06421	0.0289917	
-2.06665	0.0254822	
-2.06818	0.0213623	
-2.06909	0.0158691	
-2.06848	0.0111389	
-2.06909	0.00549316	
-2.07062	0.000457764	
-2.07275	-0.00457764	
-2.07397	-0.0105286	
-2.07428	-0.0163269	
-2.07428	-0.0210571	
-2.07672	-0.0238037	
-2.07794	-0.0267029	
-2.07886	-0.0282288	
-2.07855	-0.0280762	
-2.08069	-0.0270081	
-2.08313	-0.0263977	
-2.08313	-0.0263977	
-2.08588	-0.0254822	
-2.08832	-0.0241089	
-2.08832	-0.0231934	
-2.09106	-0.0219727	
-2.09259	-0.020752	
-2.09381	-0.0193787	
-2.09351	-0.017395	
-2.09625	-0.0141907	
-2.09747	-0.0114441	
-2.09869	-0.00823975	
-2.10083	-0.00473022	
-2.10297	-0.00183105	
-2.10388	0.00152588	
-2.10602	0.0062561	
-2.10754	0.0108337	
-2.1106	0.0151062	
-2.11243	0.0184631	
-2.11578	0.0230408	
-2.11731	0.0262451	
-2.12006	0.0274658	
-2.12158	0.0271606	
-2.12311	0.0283813	
-2.1225	0.0296021	
-2.12402	0.0305176	
-2.12738	0.0318909	
-2.12799	0.032959	
-2.12799	0.0344849	
-2.12982	0.0357056	
-2.13226	0.0370789	
-2.13226	0.0379944	
-2.1344	0.040741	
-2.13745	0.0442505	
-2.13745	0.0474548	
-2.13867	0.0520325	
-2.13745	0.0564575	
-2.13745	0.059967	
-2.1402	0.0630188	
-2.14203	0.0646973	
-2.14264	0.0650024	
-2.14447	0.0637817	
-2.14722	0.0614929	
-2.14691	0.0590515	
-2.14722	0.0564575	
-2.14966	0.0540161	
-2.1521	0.0521851	
-2.1524	0.0508118	
-2.1524	0.0497437	
-2.15271	0.0491333	
-2.1524	0.0485229	
-2.15424	0.0465393	
-2.15698	0.0444031	
-2.15698	0.0418091	
-2.15942	0.040741	
-2.16187	0.0431824	
-2.16156	0.0457764	
-2.16248	0.0457764	
-2.16248	0.0450134	
-2.16431	0.0436401	
-2.16705	0.0421143	
-2.16888	0.0395203	
-2.17133	0.0378418	
-2.17255	0.0382996	
-2.17163	0.0402832	
-2.17346	0.0447083	
-2.17621	0.0480652	
-2.17682	0.0505066	
-2.17926	0.052948	
-2.1814	0.0540161	
-2.18231	0.0549316	
-2.18384	0.0563049	
-2.18536	0.057373	
-2.1875	0.0601196	
-2.18903	0.0643921	
-2.19055	0.0683594	
-2.19147	0.0714111	
-2.19177	0.0747681	
-2.19147	0.0772095	
-2.19177	0.0778198	
-2.19421	0.0767517	
-2.19635	0.0752258	
-2.19666	0.0741577	
-2.19666	0.0738525	
-2.19635	0.072937	
-2.19635	0.071106	
-2.19666	0.0675964	
-2.19604	0.0624084	
-2.19666	0.0570679	
-2.19879	0.0515747	
-2.20062	0.0465393	
-2.20154	0.0422668	
-2.19971	0.0396729	
-2.19788	0.038147	
-2.19635	0.037384	
-2.19604	0.0382996	
-2.19666	0.039978	
-2.19666	0.0422668	
-2.19666	0.0456238	
-2.19666	0.0486755	
-2.19666	0.0523376	
-2.19452	0.0564575	
-2.19208	0.0592041	
-2.18964	0.0624084	
-2.18719	0.0663757	
-2.18781	0.0682068	
-2.18567	0.0686646	
-2.18292	0.0708008	
-2.17987	0.0735474	
-2.17773	0.0765991	
-2.17499	0.0787354	
-2.17072	0.0814819	
-2.16888	0.0827026	
-2.16522	0.0840759	
-2.16064	0.0852966	
-2.15576	0.0849915	
-2.15149	0.083313	
-2.14813	0.0817871	
-2.14539	0.0802612	
-2.14111	0.0784302	
-2.13593	0.0769043	
-2.13165	0.0761414	
-2.12463	0.0770569	
-2.11761	0.0782776	
-2.11182	0.0791931	
-2.10693	0.0813293	
-2.10052	0.0842285	
-2.0932	0.0881958	
-2.08557	0.0909424	
-2.07855	0.093689	
-2.07031	0.0958252	
-2.06146	0.0978088	
-2.05414	0.0978088	
-2.04559	0.0990295	
-2.03705	0.101166	
-2.02789	0.103302	
-2.01782	0.105743	
-2.00836	0.106659	
-1.99768	0.105286	
-1.98761	0.102997	
-1.97632	0.101318	
-1.96411	0.100708	
-1.95435	0.101318	
-1.94458	0.104065	
-1.93176	0.10849	
-1.92017	0.112457	
-1.90765	0.114746	
-1.89636	0.115051	
-1.88232	0.114746	
-1.87164	0.11261	
-1.85852	0.110168	
-1.84631	0.107574	
-1.8338	0.102386	
-1.81946	0.0976563	
-1.80511	0.092926	
-1.79047	0.0888062	
-1.77277	0.0857544	
-1.75659	0.0842285	
-1.74164	0.0837708	
-1.72607	0.0828552	
-1.70959	0.0814819	
-1.6922	0.0813293	
-1.6748	0.0802612	
-1.65649	0.0793457	
-1.63879	0.0787354	
-1.62354	0.0784302	
-1.60645	0.0796509	
-1.58752	0.0813293	
-1.56799	0.0837708	
-1.54999	0.0865173	
-1.5329	0.088501	
-1.51398	0.091095	
-1.49475	0.0941467	
-1.47522	0.0979614	
-1.45599	0.101776	
-1.43524	0.106049	
-1.41602	0.110168	
-1.39404	0.113373	
-1.37299	0.115204	
-1.35223	0.115814	
-1.3327	0.11322	
-1.31317	0.108948	
-1.2912	0.103149	
-1.26923	0.0965881	
-1.24847	0.0904846	
-1.22955	0.0828552	
-1.20728	0.0756836	
-1.18622	0.0688171	
-1.16516	0.0656128	
-1.14441	0.0642395	
-1.12213	0.0648499	
-1.10229	0.0650024	
-1.08246	0.0636292	
-1.06018	0.0610352	
-1.03821	0.0596619	
-1.01776	0.0590515	
-0.999451	0.0593567	
-0.976563	0.0605774	
-0.9552	0.0636292	
-0.934448	0.0675964	
-0.915833	0.071106	
-0.895386	0.0741577	
-0.875549	0.075531	
-0.854187	0.0761414	
-0.832214	0.0761414	
-0.812378	0.0764465	
-0.792542	0.0761414	
-0.7724	0.0769043	
-0.750122	0.0788879	
-0.72998	0.0805664	
-0.708618	0.0814819	
-0.689392	0.0802612	
-0.669556	0.0770569	
-0.650635	0.0701904	
-0.628357	0.0624084	
-0.606384	0.0538635	
-0.585938	0.0468445	
-0.565796	0.0410461	
-0.544434	0.0349426	
-0.523071	0.0286865	
-0.50354	0.0227356	
-0.483093	0.018158	
-0.461731	0.0152588	
-0.439148	0.0125122	
-0.419006	0.00991821	
-0.39856	0.00778198	
-0.375366	0.00579834	
-0.35553	0.00457764	
-0.333862	0.00274658	
-0.312195	0.0012207	
-0.289917	0.000610352	
-0.267944	0.000457764	
-0.245667	0.00152588	
-0.223999	0.00244141	
-0.201416	0.00366211	
-0.179749	0.00640869	
-0.156555	0.0100708	
-0.132446	0.01297	
-0.111084	0.0163269	
-0.0881958	0.0189209	
-0.0668335	0.019989	
-0.0442505	0.0192261	
-0.0204468	0.0172424	
0.00396729	0.0138855	
0.0286865	0.0114441	
0.0512695	0.00961304	
0.0735474	0.00762939	
0.0970459	0.00488281	
0.121765	0.00198364	
0.145874	-0.00274658	
0.168762	-0.00976563	
0.19165	-0.0169373	
0.215454	-0.0238037	
0.240173	-0.0283813	
0.263977	-0.0308228	
0.28595	-0.0311279	
0.309143	-0.0311279	
0.332642	-0.0311279	
0.357666	-0.032959	
0.38208	-0.0366211	
0.406189	-0.040741	
0.428467	-0.043335	
0.451355	-0.0445557	
0.475769	-0.0422668	
0.499878	-0.0376892	
0.524902	-0.0331116	
0.54718	-0.0282288	
0.568237	-0.0254822	
0.593262	-0.0270081	
0.614929	-0.0306702	
0.637817	-0.0378418	
0.661621	-0.0469971	
0.68573	-0.0559998	
0.708008	-0.0637817	
0.730896	-0.0712585	
0.752563	-0.0773621	
0.775452	-0.0820923	
0.799866	-0.0860596	
0.821533	-0.0894165	
0.84259	-0.0926208	
0.863342	-0.0942993	
0.885315	-0.0949097	
0.906372	-0.0939941	
0.925598	-0.0927734	
0.945435	-0.091095	
0.967407	-0.088501	
0.98877	-0.0860596	
1.00952	-0.0837708	
1.02875	-0.08255	
1.04767	-0.0820923	
1.06781	-0.0799561	
1.08765	-0.0773621	
1.10687	-0.0737	
1.12488	-0.0679016	
1.14258	-0.0630188	
1.16119	-0.0579834	
1.18073	-0.0544739	
1.19873	-0.0505066	
1.21368	-0.0460815	
1.23169	-0.043335	
1.24786	-0.0401306	
1.26251	-0.0370789	
1.27991	-0.0363159	
1.297	-0.0363159	
1.31195	-0.0369263	
1.3266	-0.039978	
1.34125	-0.0439453	
1.3559	-0.0479126	
1.37054	-0.0509644	
1.38367	-0.0532532	
1.39862	-0.0549316	
1.41235	-0.0570679	
1.42365	-0.0614929	
1.43677	-0.065918	
1.4502	-0.0709534	
1.46271	-0.0764465	
1.47491	-0.08255	
1.48621	-0.0874329	
1.49628	-0.090332	
1.50665	-0.0924683	
1.51642	-0.0944519	
1.52649	-0.0947571	
1.53625	-0.0958252	
1.54602	-0.0973511	
1.55609	-0.0999451	
1.56372	-0.103302	
1.57135	-0.106049	
1.57867	-0.107727	
1.58691	-0.108337	
1.59607	-0.106964	
1.60309	-0.104675	
1.61041	-0.102997	
1.61804	-0.101318	
1.62354	-0.0994873	
1.63025	-0.0976563	
1.63757	-0.0971985	
1.64307	-0.0971985	
1.64764	-0.096283	
1.65497	-0.0942993	
1.66168	-0.0938416	
1.66779	-0.09552	
1.67175	-0.0967407	
1.67755	-0.0970459	
1.68243	-0.0971985	
1.68732	-0.0967407	
1.6922	-0.0944519	
1.69525	-0.0921631	
1.698	-0.0898743	
1.70197	-0.0874329	
1.70471	-0.0840759	
1.70746	-0.0796509	
1.71021	-0.075531	
1.71234	-0.0727844	
1.71417	-0.0692749	
1.71478	-0.065918	
1.71509	-0.0630188	
1.71783	-0.0611877	
1.71967	-0.06073	
1.72028	-0.059967	
1.71997	-0.0588989	
1.72211	-0.058136	
1.72394	-0.0578308	
1.72577	-0.058136	
1.72546	-0.0582886	
1.72485	-0.0579834	
1.72546	-0.0582886	
1.72485	-0.0590515	
1.72516	-0.059967	
1.72211	-0.0605774	
1.72119	-0.06073	
1.72058	-0.0602722	
1.72028	-0.059967	
1.71814	-0.0585938	
1.71539	-0.0575256	
1.71509	-0.0563049	
1.71539	-0.055542	
1.71295	-0.0566101	
1.71112	-0.0585938	
1.70837	-0.0610352	
1.70654	-0.0639343	
1.70288	-0.0675964	
1.70105	-0.0706482	
1.70044	-0.0732422	
1.6983	-0.075531	
1.69373	-0.0782776	
1.69159	-0.0804138	
1.68884	-0.0823975	
1.68579	-0.0837708	
1.68427	-0.0845337	
1.67908	-0.0848389	
1.67603	-0.085144	
1.67206	-0.0840759	
1.66779	-0.0830078	
1.66412	-0.0817871	
1.66199	-0.0798035	
1.65863	-0.0776672	
1.65405	-0.0752258	
1.65039	-0.0732422	
1.64429	-0.0712585	
1.64093	-0.0674438	
1.63544	-0.0631714	
1.63086	-0.0605774	
1.62781	-0.0578308	
1.62292	-0.0561523	
1.61682	-0.0558472	
1.61163	-0.0547791	
1.60675	-0.0546265	
1.60065	-0.0550842	
1.59607	-0.0552368	
1.59119	-0.0547791	
1.58661	-0.0537109	
1.58112	-0.0534058	
1.57623	-0.0532532	
1.57104	-0.0531006	
1.56464	-0.0524902	
1.55731	-0.0511169	
1.55182	-0.0502014	
1.54694	-0.0482178	
1.53992	-0.0465393	
1.5332	-0.0460815	
1.52771	-0.0468445	
1.52191	-0.0485229	
1.51794	-0.0511169	
1.51062	-0.0534058	
1.50299	-0.0550842	
1.49628	-0.0558472	
1.48895	-0.0566101	
1.48315	-0.0593567	
1.47858	-0.0630188	
1.47369	-0.0666809	
1.46667	-0.0700378	
1.45996	-0.0717163	
1.45447	-0.0708008	
1.44684	-0.0694275	
1.43982	-0.0666809	
1.43402	-0.0614929	
1.42731	-0.0541687	
1.41998	-0.0447083	
1.41357	-0.0352478	
1.40839	-0.0262451	
1.40076	-0.0187683	
1.39496	-0.0134277	
1.38855	-0.0109863	
1.38092	-0.0119019	
1.37329	-0.0149536	
1.36597	-0.0201416	
1.36047	-0.0273132	
1.35376	-0.0343323	
1.34613	-0.0408936	
1.34094	-0.0454712	
1.33575	-0.04776	
1.32843	-0.0483704	
1.32172	-0.0474548	
1.31439	-0.0465393	
1.30707	-0.0469971	
1.30249	-0.0486755	
1.29456	-0.0517273	
1.28754	-0.0563049	
1.28265	-0.0598145	
1.27563	-0.0614929	
1.26801	-0.0616455	
1.26068	-0.0601196	
1.25275	-0.058136	
1.24786	-0.0540161	
1.24115	-0.0482178	
1.23291	-0.0431824	
1.22711	-0.039978	
1.21979	-0.0389099	
1.21155	-0.0393677	
1.20636	-0.0404358	
1.20056	-0.040741	
1.19446	-0.0410461	
1.18866	-0.0408936	
1.18134	-0.0415039	
1.17279	-0.0437927	
1.16608	-0.0469971	
1.1618	-0.0515747	
1.15295	-0.0559998	
1.14471	-0.0621033	
1.14014	-0.0672913	
1.13312	-0.0708008	
1.12579	-0.0732422	
1.12	-0.075531	
1.11481	-0.0773621	
1.11023	-0.0787354	
1.10321	-0.0788879	
1.0965	-0.0778198	
1.08826	-0.0770569	
1.08124	-0.0747681	
1.07574	-0.0732422	
1.07056	-0.0721741	
1.06628	-0.0701904	
1.05896	-0.0686646	
1.05133	-0.067749	
1.04584	-0.067749	
1.03943	-0.0675964	
1.0321	-0.0689697	
1.02661	-0.0706482	
1.02081	-0.0730896	
1.01685	-0.0750732	
1.01044	-0.0753784	
1.0022	-0.0750732	
0.997314	-0.0744629	
0.993042	-0.0730896	
0.987854	-0.0726318	
0.982971	-0.0727844	
0.975952	-0.0718689	
0.970154	-0.0700378	
0.964966	-0.0668335	
0.958252	-0.063324	
0.953369	-0.0593567	
0.948486	-0.0558472	
0.943909	-0.0523376	
0.939026	-0.0486755	
0.933533	-0.0460815	
0.928955	-0.0445557	
0.924072	-0.0419617	
0.918274	-0.0402832	
0.914307	-0.0387573	
0.908813	-0.0386047	
0.901794	-0.0370789	
0.894165	-0.0335693	
0.889282	-0.0309753	
0.886841	-0.0279236	
0.881653	-0.0242615	
0.875549	-0.0202942	
0.869446	-0.0164795	
0.86731	-0.0137329	
0.864258	-0.01297	
0.857544	-0.0134277	
0.851135	-0.0146484	
0.845947	-0.0169373	
0.839844	-0.0192261	
0.835266	-0.0216675	
0.830383	-0.0241089	
0.8255	-0.0265503	
0.823059	-0.0282288	
0.819397	-0.0283813	
0.813293	-0.0296021	
0.809021	-0.0317383	
0.805664	-0.0338745	
0.799866	-0.0379944	
0.796204	-0.0439453	
0.791016	-0.0509644	
0.786133	-0.0572205	
0.783081	-0.0622559	
0.780334	-0.0665283	
0.776978	-0.0694275	
0.770874	-0.0712585	
0.766602	-0.0724792	
0.762024	-0.0727844	
0.756531	-0.072937	
0.753479	-0.0720215	
0.750122	-0.0691223	
0.746155	-0.0646973	
0.741577	-0.0608826	
0.738831	-0.0576782	
0.735779	-0.0561523	
0.731812	-0.0564575	
0.727539	-0.0584412	
0.722046	-0.0608826	
0.71991	-0.063324	
0.716248	-0.065155	
0.71228	-0.0665283	
0.708618	-0.065918	
0.706482	-0.0627136	
0.704956	-0.0564575	
0.702209	-0.0491333	
0.696716	-0.0408936	
0.69519	-0.032959	
0.691833	-0.0263977	
0.687866	-0.0201416	
0.68512	-0.015564	
0.682373	-0.0132751	
0.679932	-0.0119019	
0.677795	-0.0125122	
0.675964	-0.0152588	
0.672302	-0.0186157	
0.670776	-0.0224304	
0.667725	-0.0262451	
0.665894	-0.0283813	
0.662842	-0.027771	
0.661011	-0.0260925	
0.657349	-0.022583	
0.655823	-0.019989	
0.653381	-0.018158	
0.650635	-0.0160217	
0.650024	-0.0146484	
0.647583	-0.0140381	
0.645752	-0.014801	
0.645142	-0.0167847	
0.6427	-0.0186157	
0.641174	-0.0198364	
0.640259	-0.0216675	
0.637817	-0.0250244	
0.633545	-0.030365	
0.630798	-0.0361633	
0.630493	-0.0415039	
0.628662	-0.0456238	
0.626526	-0.0485229	
0.624084	-0.0511169	
0.620728	-0.0526428	
0.620117	-0.0523376	
0.620117	-0.0523376	
0.618286	-0.0535583	
0.61615	-0.055542	
0.613098	-0.0566101	
0.610962	-0.0595093	
0.610657	-0.0622559	
0.608521	-0.0630188	
0.606384	-0.0639343	
0.606079	-0.0656128	
0.603638	-0.0654602	
0.601196	-0.0656128	
0.600586	-0.0639343	
0.598755	-0.0605774	
0.596313	-0.0582886	
0.593872	-0.0553894	
0.591736	-0.0537109	
0.591125	-0.0534058	
0.588074	-0.0526428	
0.586548	-0.0505066	
0.584106	-0.0485229	
0.58136	-0.0447083	
0.58136	-0.0419617	
0.581055	-0.0413513	
0.578613	-0.0401306	
0.577393	-0.0390625	
0.575867	-0.0379944	
0.574036	-0.0366211	
0.571594	-0.0350952	
0.571289	-0.0338745	
0.569458	-0.032196	
0.567017	-0.0288391	
0.566406	-0.0271606	
0.563354	-0.0256348	
0.56427	-0.0231934	
0.563354	-0.0222778	
0.562439	-0.0224304	
0.560913	-0.0236511	
0.561829	-0.0256348	
0.561218	-0.0292969	
0.559387	-0.0334167	
0.557251	-0.0366211	
0.556946	-0.0379944	
0.556641	-0.0384521	
0.556946	-0.0384521	
0.555725	-0.0386047	
0.554504	-0.0387573	
0.552368	-0.0376892	
0.551758	-0.0369263	
0.550842	-0.0370789	
0.549927	-0.038147	
0.548096	-0.0384521	
0.546265	-0.0386047	
0.546875	-0.0382996	
0.544739	-0.0396729	
0.542908	-0.0415039	
0.542603	-0.0436401	
0.542297	-0.0462341	
0.539856	-0.04776	
0.538025	-0.0482178	
0.535278	-0.0482178	
0.533142	-0.0491333	
0.533142	-0.0509644	
0.53009	-0.0523376	
0.528259	-0.0531006	
0.524597	-0.0534058	
0.523376	-0.0532532	
0.522766	-0.0532532	
0.52002	-0.0534058	
0.518188	-0.0541687	
0.515747	-0.0561523	
0.513916	-0.0578308	
0.510559	-0.058136	
0.508728	-0.057373	
0.505371	-0.0552368	
0.50354	-0.0531006	
0.500488	-0.050354	
0.498657	-0.0489807	
0.495911	-0.0480652	
0.493774	-0.0495911	
0.491333	-0.0511169	
0.487976	-0.0546265	
0.486145	-0.0579834	
0.484009	-0.06073	
0.481873	-0.0631714	
0.479431	-0.065918	
0.476379	-0.0669861	
0.473633	-0.0657654	
0.471191	-0.0637817	
0.46936	-0.06073	
0.465393	-0.0576782	
0.464478	-0.0561523	
0.463562	-0.0559998	
0.461426	-0.0563049	
0.45929	-0.0585938	
0.458374	-0.0611877	
0.456543	-0.0624084	
0.454407	-0.0630188	
0.45105	-0.0640869	
0.449829	-0.0653076	
0.446777	-0.0654602	
0.444946	-0.0646973	
0.444031	-0.0645447	
0.4422	-0.0660706	
0.439453	-0.0679016	
0.439453	-0.0700378	
0.438538	-0.0704956	
0.436096	-0.0714111	
0.434265	-0.0732422	
0.431519	-0.0761414	
0.429688	-0.0773621	
0.427246	-0.0767517	
0.426941	-0.0747681	
0.426331	-0.0717163	
0.424805	-0.0672913	
0.4245	-0.0627136	
0.424194	-0.0592041	
0.424194	-0.0572205	
0.423584	-0.0561523	
0.422058	-0.0546265	
0.419922	-0.0537109	
0.419312	-0.0532532	
0.418701	-0.0534058	
0.41687	-0.052948	
0.415344	-0.0532532	
0.414429	-0.0540161	
0.414124	-0.0543213	
0.411682	-0.0526428	
0.410156	-0.0505066	
0.409546	-0.0479126	
0.407104	-0.0457764	
0.405579	-0.0448608	
0.404053	-0.0445557	
0.403748	-0.0444031	
0.402222	-0.0447083	
0.400696	-0.0436401	
0.397644	-0.0434875	
0.395203	-0.0428772	
0.394897	-0.0416565	
0.392151	-0.0408936	
0.39032	-0.0410461	
0.390625	-0.039978	
0.389709	-0.038147	
0.387878	-0.0350952	
0.386047	-0.0305176	
0.385742	-0.0257874	
0.385132	-0.0209045	
0.385132	-0.0163269	
0.382385	-0.0125122	
0.381165	-0.0117493	
0.380859	-0.0216675	
0.380859	-0.037384	
0.380859	-0.0442505	
0.377808	-0.0457764	
0.375977	-0.0469971	
0.375977	-0.0469971	
0.375061	-0.0463867	
0.375671	-0.0460815	
0.372925	-0.0457764	
0.372925	-0.0469971	
0.374146	-0.0495911	
0.375061	-0.0532532	
0.375061	-0.0558472	
0.375061	-0.0582886	
0.37323	-0.059967	
0.37323	-0.06073	
0.375366	-0.0613403	
0.375061	-0.062561	
0.375977	-0.062561	
0.375061	-0.0624084	
0.375366	-0.0595093	
0.375061	-0.0541687	
0.377808	-0.0473022	
0.376892	-0.039978	
0.378723	-0.0326538	
0.379639	-0.0262451	
0.380249	-0.0209045	
0.380859	-0.0151062	
0.379944	-0.00900269	
0.380554	-0.00366211	
0.380249	0.000457764	
0.380249	0.00244141	
0.380249	0.00289917	
0.38269	0.00213623	
0.383911	-0.000915527	
0.384827	-0.00518799	
0.384521	-0.0105286	
0.385132	-0.017395	
0.385437	-0.0245667	
0.387268	-0.0312805	
0.388794	-0.0358582	
0.389099	-0.0387573	
0.390015	-0.0411987	
0.390015	-0.0436401	
0.391846	-0.0462341	
0.393982	-0.0494385	
0.394287	-0.0541687	
0.394592	-0.0587463	
0.393982	-0.0630188	
0.394592	-0.0657654	
0.396423	-0.068512	
0.401001	-0.0701904	
0.403442	-0.0712585	
0.406189	-0.0726318	
0.408936	-0.0726318	
0.408936	-0.0726318	
0.408936	-0.0720215	
0.411377	-0.0698853	
0.413818	-0.067749	
0.416565	-0.0662231	
0.418396	-0.0666809	
0.421448	-0.0675964	
0.423584	-0.0679016	
0.424194	-0.0663757	
0.42572	-0.0631714	
0.428162	-0.0602722	
0.428772	-0.0585938	
0.431519	-0.0584412	
0.43396	-0.0598145	
0.435791	-0.0630188	
0.440063	-0.0666809	
0.44342	-0.0701904	
0.443115	-0.0718689	
0.446167	-0.0721741	
0.448303	-0.0697327	
0.451355	-0.0675964	
0.455017	-0.0653076	
0.458069	-0.0628662	
0.458374	-0.0601196	
0.458374	-0.0578308	
0.460815	-0.0553894	
0.463257	-0.0538635	
0.466003	-0.0531006	
0.467224	-0.0541687	
0.470886	-0.0550842	
0.472412	-0.0546265	
0.474548	-0.0526428	
0.477295	-0.0498962	
0.480652	-0.0457764	
0.482483	-0.0434875	
0.486145	-0.040741	
0.487366	-0.0386047	
0.488281	-0.0366211	
0.490417	-0.0361633	
0.49408	-0.0372314	
0.496826	-0.0396729	
0.500183	-0.0439453	
0.502014	-0.0497437	
0.504761	-0.0569153	
0.506592	-0.0639343	
0.509949	-0.0706482	
0.51178	-0.075531	
0.514832	-0.0788879	
0.516663	-0.0810242	
0.517578	-0.0813293	
0.519714	-0.0799561	
0.523376	-0.0790405	
0.522766	-0.0788879	
0.524597	-0.0779724	
0.526123	-0.0759888	
0.527649	-0.0724792	
0.52887	-0.0701904	
0.531616	-0.068512	
0.531616	-0.0680542	
0.534363	-0.0682068	
0.536194	-0.0689697	
0.536499	-0.0692749	
0.539246	-0.0674438	
0.540771	-0.0653076	
0.542603	-0.0619507	
0.542297	-0.0584412	
0.541992	-0.0544739	
0.544434	-0.0498962	
0.54657	-0.0453186	
0.54657	-0.0422668	
0.547485	-0.0418091	
0.546875	-0.0430298	
0.549011	-0.0434875	
0.551147	-0.0439453	
0.552063	-0.0463867	
0.550842	-0.04776	
0.552063	-0.0474548	
0.551758	-0.0462341	
0.551758	-0.0462341	
0.553894	-0.0457764	
0.556335	-0.0457764	
0.55542	-0.0465393	
0.556946	-0.0486755	
0.556335	-0.0511169	
0.556335	-0.0532532	
0.558472	-0.0550842	
0.560608	-0.0553894	
0.560608	-0.0569153	
0.561218	-0.0579834	
0.561523	-0.058136	
0.561218	-0.0575256	
0.561218	-0.0559998	
0.561218	-0.0547791	
0.560913	-0.0537109	
0.561218	-0.0515747	
0.560913	-0.0483704	
0.560913	-0.0453186	
0.561523	-0.0422668	
0.560608	-0.0376892	
0.561218	-0.0318909	
0.561523	-0.0263977	
0.561218	-0.0209045	
0.561218	-0.0158691	
0.56366	-0.0111389	
0.563354	-0.00610352	
0.563965	-0.00198364	
0.565491	0.000762939	
0.565796	0.00335693	
0.565796	0.00656128	
0.566406	0.0102234	
0.565796	0.01297	
0.566101	0.0137329	
0.566711	0.0138855	
0.568542	0.0141907	
0.568237	0.0132751	
0.569458	0.0119019	
0.570984	0.0100708	
0.570984	0.00793457	
0.570679	0.00427246	
0.571289	-0.000915527	
0.571899	-0.00778198	
0.570679	-0.0163269	
0.571594	-0.0244141	
0.57373	-0.0331116	
0.57373	-0.0405884	
0.572205	-0.045929	
0.570984	-0.0515747	
0.571594	-0.055542	
0.571594	-0.0576782	
0.57312	-0.0588989	
0.575256	-0.0601196	
0.575867	-0.059967	
0.574036	-0.0575256	
0.57373	-0.0559998	
0.573425	-0.0556946	
0.572815	-0.0550842	
0.571594	-0.0537109	
0.571594	-0.0527954	
0.570984	-0.0518799	
0.571899	-0.0535583	
0.571289	-0.0569153	
0.568848	-0.0613403	
0.567322	-0.0653076	
0.565796	-0.0680542	
0.566406	-0.0701904	
0.566711	-0.0695801	
0.566711	-0.0688171	
0.566101	-0.0689697	
0.56366	-0.0706482	
0.56427	-0.0741577	
0.563965	-0.0802612	
0.565186	-0.0880432	
0.56366	-0.0956726	
0.562439	-0.102234	
0.561218	-0.105286	
0.561829	-0.103455	
0.561218	-0.0982666	
0.561523	-0.0912476	
0.561523	-0.0846863	
0.559387	-0.0794983	
0.556641	-0.0756836	
0.556946	-0.0740051	
0.556641	-0.0724792	
0.556946	-0.0701904	
0.55481	-0.0679016	
0.552063	-0.0654602	
0.551758	-0.0621033	
0.551147	-0.058136	
0.549011	-0.0556946	
0.547485	-0.0520325	
0.546875	-0.0495911	
0.54718	-0.0460815	
0.54718	-0.0415039	
0.546875	-0.0372314	
0.544739	-0.032959	
0.542297	-0.0289917	
0.542603	-0.0276184	
0.542603	-0.0292969	
0.541992	-0.0325012	
0.542297	-0.0369263	
0.539551	-0.040741	
0.538025	-0.0445557	
0.536804	-0.0480652	
0.537109	-0.0511169	
0.537415	-0.0534058	
0.537415	-0.0541687	
0.537109	-0.0534058	
0.534973	-0.0537109	
0.532837	-0.0541687	
0.533142	-0.0558472	
0.531921	-0.057373	
0.530396	-0.0584412	
0.528259	-0.0582886	
0.527649	-0.057373	
0.524902	-0.0570679	
0.523071	-0.0576782	
0.522766	-0.0592041	
0.52002	-0.0602722	
0.518494	-0.0604248	
0.518188	-0.0596619	
0.517578	-0.0585938	
0.515442	-0.0590515	
0.51239	-0.0602722	
0.509949	-0.0616455	
0.508423	-0.0627136	
0.505066	-0.0634766	
0.503845	-0.0640869	
0.503235	-0.063324	
0.501404	-0.0642395	
0.496216	-0.0642395	
0.493469	-0.0642395	
0.490723	-0.0642395	
0.488586	-0.0631714	
0.486145	-0.0631714	
0.483704	-0.0624084	
0.480957	-0.0610352	
0.478516	-0.06073	
0.476685	-0.0598145	
0.471802	-0.0585938	
0.46875	-0.0564575	
0.467834	-0.0515747	
0.466309	-0.0450134	
0.461121	-0.0382996	
0.45929	-0.0332642	
0.456238	-0.0294495	
0.452881	-0.0288391	
0.447693	-0.0294495	
0.444336	-0.0318909	
0.441284	-0.0338745	
0.439453	-0.035553	
0.438538	-0.0364685	
0.436401	-0.0360107	
0.432129	-0.0361633	
0.427551	-0.0361633	
0.424805	-0.038147	
0.423584	-0.040741	
0.421753	-0.0437927	
0.41748	-0.0463867	
0.415344	-0.0485229	
0.412598	-0.0511169	
0.40802	-0.0543213	
0.405579	-0.0572205	
0.403137	-0.0578308	
0.397644	-0.0582886	
0.395508	-0.0567627	
0.393066	-0.0515747	
0.390625	-0.045929	
0.387573	-0.0404358	
0.385742	-0.035553	
0.383606	-0.0323486	
0.380859	-0.0312805	
0.377808	-0.0320435	
0.373535	-0.0358582	
0.371094	-0.0411987	
0.368347	-0.0462341	
0.366211	-0.0505066	
0.363464	-0.0532532	
0.360718	-0.0552368	
0.358276	-0.0549316	
0.354004	-0.052948	
0.352173	-0.0505066	
0.3479	-0.0474548	
0.346069	-0.0437927	
0.343933	-0.0405884	
0.338745	-0.0379944	
0.336914	-0.0357056	
0.334473	-0.0332642	
0.328979	-0.0299072	
0.324097	-0.0256348	
0.32196	-0.019989	
0.321655	-0.0138855	
0.318909	-0.00854492	
0.314636	-0.00442505	
0.309753	-0.00152588	
0.307617	0.000762939	
0.306091	0.00411987	
0.30426	0.00808716	
0.299377	0.0111389	
0.29541	0.0143433	
0.292358	0.0143433	
0.289917	0.0123596	
0.287476	0.0088501	
0.284729	0.00488281	
0.282288	0.000152588	
0.279541	-0.00564575	
0.275269	-0.0119019	
0.272217	-0.0158691	
0.270386	-0.0192261	
0.267334	-0.0216675	
0.265198	-0.0242615	
0.26062	-0.0274658	
0.258484	-0.0326538	
0.256042	-0.0395203	
0.253601	-0.0486755	
0.250244	-0.0592041	
0.248108	-0.0689697	
0.245361	-0.0779724	
0.241394	-0.0860596	
0.236206	-0.0920105	
0.23407	-0.0939941	
0.231323	-0.0932312	
0.228271	-0.0891113	
0.226135	-0.0843811	
0.223999	-0.0793457	
0.221558	-0.0764465	
0.216675	-0.0761414	
0.213928	-0.078125	
0.211792	-0.0813293	
0.206299	-0.0848389	
0.203857	-0.0868225	
0.201416	-0.088501	
0.198975	-0.0888062	
0.196838	-0.0860596	
0.192871	-0.0817871	
0.189209	-0.0770569	
0.186462	-0.0723267	
0.184631	-0.0672913	
0.18219	-0.0642395	
0.177917	-0.0630188	
0.174561	-0.0624084	
0.17395	-0.0622559	
0.169067	-0.0627136	
0.164795	-0.0630188	
0.164185	-0.0621033	
0.161743	-0.0601196	
0.158081	-0.0585938	
0.154724	-0.057373	
0.152283	-0.0559998	
0.147705	-0.0556946	
0.145569	-0.0561523	
0.142517	-0.0569153	
0.137634	-0.0553894	
0.135193	-0.0518799	
0.132751	-0.0483704	
0.128479	-0.0440979	
0.125732	-0.0396729	
0.123291	-0.0358582	
0.117798	-0.0334167	
0.116272	-0.0306702	
0.115051	-0.0289917	
0.11261	-0.0286865	
0.108948	-0.0297546	
0.105591	-0.0306702	
0.103149	-0.0318909	
0.101318	-0.0338745	
0.0979614	-0.035553	
0.0939941	-0.0357056	
0.0915527	-0.0360107	
0.0878906	-0.0367737	
0.0860596	-0.0382996	
0.083313	-0.0375366	
0.0793457	-0.0358582	
0.0744629	-0.0341797	
0.0720215	-0.0331116	
0.0708008	-0.0315857	
0.0692749	-0.032959	
0.0650024	-0.0360107	
0.0598145	-0.0396729	
0.0570679	-0.0431824	
0.0540161	-0.0471497	
0.0518799	-0.0506592	
0.0491333	-0.0537109	
0.0448608	-0.0558472	
0.0405884	-0.0587463	
0.038147	-0.0611877	
0.0344849	-0.0643921	
0.0305176	-0.0666809	
0.027771	-0.0695801	
0.0253296	-0.0721741	
0.0195313	-0.072937	
0.0146484	-0.0723267	
0.0125122	-0.0700378	
0.00976563	-0.0668335	
0.00579834	-0.063324	
0.000915527	-0.0614929	
-0.00183105	-0.059967	
-0.00518799	-0.0579834	
-0.00854492	-0.0553894	
-0.0137329	-0.052948	
-0.0164795	-0.0497437	
-0.0192261	-0.0460815	
-0.0241089	-0.043335	
-0.0283813	-0.0402832	
-0.0308228	-0.038147	
-0.0341797	-0.0369263	
-0.0378418	-0.035553	
-0.0411987	-0.0337219	
-0.0436401	-0.0343323	
-0.0463867	-0.0361633	
-0.0491333	-0.0395203	
-0.0531006	-0.043335	
-0.055542	-0.0465393	
-0.0588989	-0.04776	
-0.0634766	-0.0500488	
-0.0656128	-0.052948	
-0.0689697	-0.0558472	
-0.0714111	-0.0584412	
-0.0735474	-0.059967	
-0.0759888	-0.059967	
-0.0778198	-0.0585938	
-0.0805664	-0.0575256	
-0.0827026	-0.0558472	
-0.0872803	-0.0541687	
-0.0894165	-0.0518799	
-0.0927734	-0.0509644	
-0.0949097	-0.0500488	
-0.0976563	-0.0471497	
-0.100098	-0.0428772	
-0.103149	-0.0372314	
-0.107422	-0.0309753	
-0.109253	-0.0257874	
-0.110474	-0.020752	
-0.11261	-0.0151062	
-0.117188	-0.00915527	
-0.119629	-0.0038147	
-0.122681	0.000152588	
-0.124817	0.00228882	
-0.125122	0.0012207	
-0.127563	-0.00289917	
-0.131836	-0.00854492	
-0.133667	-0.0157166	
-0.136719	-0.0236511	
-0.13916	-0.0292969	
-0.140076	-0.0334167	
-0.142517	-0.0363159	
-0.145874	-0.0387573	
-0.149231	-0.043335	
-0.152283	-0.0479126	
-0.153809	-0.052948	
-0.154419	-0.0592041	
-0.156555	-0.0646973	
-0.158691	-0.0680542	
-0.161743	-0.0709534	
-0.166016	-0.0721741	
-0.168762	-0.0727844	
-0.171814	-0.0721741	
-0.17334	-0.071106	
-0.174255	-0.070343	
-0.176392	-0.0688171	
-0.178833	-0.0657654	
-0.18158	-0.0619507	
-0.183411	-0.0575256	
-0.186157	-0.0543213	
-0.188293	-0.0515747	
-0.190735	-0.0473022	
-0.192871	-0.0447083	
-0.194092	-0.0437927	
-0.196533	-0.0434875	
-0.198059	-0.0444031	
-0.198975	-0.045929	
-0.200806	-0.0486755	
-0.202942	-0.0502014	
-0.205688	-0.0509644	
-0.207825	-0.0491333	
-0.208435	-0.0450134	
-0.211182	-0.0402832	
-0.212708	-0.0366211	
-0.215149	-0.0326538	
-0.218201	-0.0297546	
-0.221252	-0.0286865	
-0.222778	-0.0297546	
-0.222778	-0.0314331	
-0.226135	-0.0334167	
-0.227661	-0.0334167	
-0.228577	-0.03479	
-0.228577	-0.0357056	
-0.231018	-0.0376892	
-0.232849	-0.0419617	
-0.233154	-0.0466919	
-0.235596	-0.0508118	
-0.236816	-0.0546265	
-0.238037	-0.0588989	
-0.240173	-0.0637817	
-0.242615	-0.068512	
-0.242615	-0.0737	
-0.245056	-0.0776672	
-0.246887	-0.080719	
-0.247498	-0.0819397	
-0.250244	-0.08255	
-0.25177	-0.0827026	
-0.25238	-0.0834656	
-0.254822	-0.0843811	
-0.256653	-0.0849915	
-0.256653	-0.0849915	
-0.26001	-0.085144	
-0.261841	-0.0840759	
-0.262146	-0.0820923	
-0.265198	-0.0791931	
-0.266724	-0.075531	
-0.26947	-0.0727844	
-0.271912	-0.0700378	
-0.272217	-0.0674438	
-0.274658	-0.0653076	
-0.276489	-0.0619507	
-0.2771	-0.0575256	
-0.280151	-0.0537109	
-0.281982	-0.0498962	
-0.282288	-0.045929	
-0.284119	-0.0442505	
-0.286255	-0.043335	
-0.286865	-0.0430298	
-0.286865	-0.043335	
-0.289612	-0.042572	
-0.291138	-0.0396729	
-0.2948	-0.0352478	
-0.296326	-0.0305176	
-0.296936	-0.0256348	
-0.299377	-0.020752	
-0.301514	-0.0175476	
-0.302124	-0.0169373	
-0.304871	-0.0166321	
-0.306091	-0.0163269	
-0.309448	-0.017395	
-0.311584	-0.0192261	
-0.312195	-0.020752	
-0.314026	-0.0222778	
-0.316467	-0.0242615	
-0.316467	-0.0267029	
-0.318909	-0.0299072	
-0.322876	-0.0335693	
-0.325317	-0.0361633	
-0.326233	-0.0378418	
-0.325928	-0.0384521	
-0.328979	-0.0384521	
-0.329895	-0.0386047	
-0.333862	-0.0384521	
-0.335693	-0.0386047	
-0.33905	-0.0392151	
-0.340576	-0.0401306	
-0.340881	-0.0411987	
-0.342712	-0.0410461	
-0.345154	-0.0428772	
-0.348206	-0.0476074	
-0.350647	-0.0544739	
-0.353088	-0.06073	
-0.355835	-0.0657654	
-0.35553	-0.0701904	
-0.35614	-0.0730896	
-0.358582	-0.0759888	
-0.360413	-0.0773621	
-0.363464	-0.0775146	
-0.365601	-0.0770569	
-0.365906	-0.0737	
-0.368042	-0.0708008	
-0.369873	-0.0668335	
-0.37323	-0.063324	
-0.375061	-0.0604248	
-0.375977	-0.0570679	
-0.377808	-0.0534058	
-0.379639	-0.0508118	
-0.38269	-0.0479126	
-0.385742	-0.0463867	
-0.387573	-0.0460815	
-0.389099	-0.0457764	
-0.392456	-0.0469971	
-0.393677	-0.0480652	
-0.394897	-0.0483704	
-0.397339	-0.0483704	
-0.39917	-0.0492859	
-0.402527	-0.0514221	
-0.403748	-0.0538635	
-0.404663	-0.0559998	
-0.406799	-0.0593567	
-0.409546	-0.0622559	
-0.409851	-0.0627136	
-0.412292	-0.0624084	
-0.414124	-0.0601196	
-0.41626	-0.0588989	
-0.418396	-0.057373	
-0.419312	-0.0558472	
-0.421143	-0.0569153	
-0.423584	-0.0578308	
-0.426636	-0.0572205	
-0.429077	-0.0553894	
-0.429077	-0.0526428	
-0.429382	-0.0498962	
-0.432434	-0.0453186	
-0.433655	-0.0410461	
-0.433655	-0.037384	
-0.43457	-0.03479	
-0.436401	-0.0326538	
-0.438232	-0.0325012	
-0.439758	-0.0332642	
-0.441895	-0.03479	
-0.44342	-0.035553	
-0.443115	-0.0358582	
-0.444641	-0.0354004	
-0.44342	-0.0325012	
-0.446777	-0.0280762	
-0.448303	-0.0231934	
-0.448914	-0.0178528	
-0.451355	-0.0112915	
-0.453796	-0.00595093	
-0.453491	-0.00198364	
-0.453491	0.0012207	
-0.454102	0.00289917	
-0.455627	0.00289917	
-0.458069	0.00228882	
-0.459595	-0.000762939	
-0.458984	-0.0050354	
-0.458679	-0.00961304	
-0.460815	-0.0157166	
-0.462646	-0.022583	
-0.464172	-0.0305176	
-0.463867	-0.037384	
-0.466309	-0.0428772	
-0.467834	-0.0486755	
-0.467834	-0.0540161	
-0.469055	-0.0588989	
-0.471191	-0.0630188	
-0.473328	-0.0645447	
-0.473633	-0.0654602	
-0.473328	-0.0663757	
-0.475464	-0.0663757	
-0.477905	-0.0650024	
-0.478516	-0.0628662	
-0.480652	-0.0604248	
-0.482788	-0.0567627	
-0.485229	-0.0515747	
-0.485229	-0.0466919	
-0.48645	-0.0424194	
-0.487671	-0.0382996	
-0.487366	-0.0378418	
-0.488281	-0.0387573	
-0.490723	-0.042572	
-0.492554	-0.045166	
-0.49469	-0.0460815	
-0.496826	-0.0460815	
-0.500183	-0.0460815	
-0.50293	-0.045929	
-0.503845	-0.045929	
-0.505371	-0.0468445	
-0.508118	-0.0486755	
-0.509033	-0.0505066	
-0.507813	-0.0527954	
-0.509644	-0.055542	
-0.512085	-0.0584412	
-0.513306	-0.0619507	
-0.515442	-0.0665283	
-0.518494	-0.0701904	
-0.518188	-0.072937	
-0.520325	-0.075531	
-0.521545	-0.0770569	
-0.524902	-0.0788879	
-0.526733	-0.0791931	
-0.528259	-0.0775146	
-0.528259	-0.0740051	
-0.53009	-0.070343	
-0.532227	-0.0668335	
-0.531921	-0.0630188	
-0.534668	-0.0596619	
-0.537109	-0.0564575	
-0.537109	-0.0550842	
-0.540161	-0.0535583	
-0.542297	-0.0532532	
-0.542603	-0.0534058	
-0.544739	-0.0534058	
-0.54718	-0.052948	
-0.549316	-0.0532532	
-0.550537	-0.0524902	
-0.552368	-0.0517273	
-0.552673	-0.0509644	
-0.55481	-0.0508118	
-0.556641	-0.0518799	
-0.557251	-0.0524902	
-0.559082	-0.0524902	
-0.561523	-0.0512695	
-0.561829	-0.0511169	
-0.56427	-0.0498962	
-0.566406	-0.0488281	
-0.566406	-0.0483704	
-0.569458	-0.0485229	
-0.570984	-0.0482178	
-0.57373	-0.0485229	
-0.575562	-0.0482178	
-0.576782	-0.0486755	
-0.578918	-0.0483704	
-0.58075	-0.0482178	
-0.583496	-0.0474548	
-0.585938	-0.0469971	
-0.586243	-0.0471497	
-0.586853	-0.0463867	
-0.587158	-0.0469971	
-0.588684	-0.0479126	
-0.591125	-0.0480652	
-0.591125	-0.0482178	
-0.591431	-0.0488281	
-0.593567	-0.0506592	
-0.596008	-0.0508118	
-0.597229	-0.0497437	
-0.596313	-0.0479126	
-0.596619	-0.0453186	
-0.598755	-0.0416565	
-0.600586	-0.03479	
-0.601196	-0.0274658	
-0.603943	-0.0219727	
-0.605774	-0.019989	
-0.606079	-0.0190735	
-0.608521	-0.0196838	
-0.610352	-0.0218201	
-0.610962	-0.0250244	
-0.610962	-0.0286865	
-0.614014	-0.0315857	
-0.61615	-0.0331116	
-0.616455	-0.0338745	
-0.616455	-0.0346375	
-0.618286	-0.0375366	
-0.620422	-0.0424194	
-0.620422	-0.0486755	
-0.621643	-0.0540161	
-0.623169	-0.0588989	
-0.62561	-0.063324	
-0.626221	-0.0648499	
-0.625916	-0.0656128	
-0.628357	-0.0646973	
-0.630493	-0.0643921	
-0.631104	-0.0653076	
-0.632629	-0.0645447	
-0.635071	-0.0628662	
-0.635681	-0.0595093	
-0.635986	-0.0559998	
-0.637817	-0.052948	
-0.639954	-0.050354	
-0.641174	-0.0480652	
-0.643005	-0.0466919	
-0.644531	-0.0462341	
-0.645142	-0.0469971	
-0.648193	-0.0486755	
-0.65033	-0.0521851	
-0.650635	-0.0547791	
-0.650635	-0.0564575	
-0.651855	-0.0576782	
-0.654297	-0.0585938	
-0.657043	-0.0610352	
-0.660095	-0.0627136	
-0.6604	-0.0628662	
-0.661926	-0.0628662	
-0.664063	-0.0619507	
-0.665283	-0.0610352	
-0.667419	-0.0602722	
-0.669556	-0.0576782	
-0.672607	-0.0561523	
-0.674438	-0.0549316	
-0.675354	-0.0526428	
-0.67749	-0.0498962	
-0.679321	-0.045929	
-0.680237	-0.0436401	
-0.682373	-0.0416565	
-0.683899	-0.0395203	
-0.684814	-0.0361633	
-0.684814	-0.0325012	
-0.684814	-0.027771	
-0.687256	-0.0230408	
-0.688477	-0.0190735	
-0.689697	-0.0164795	
-0.692749	-0.0157166	
-0.69397	-0.0180054	
-0.69519	-0.0222778	
-0.694275	-0.0285339	
-0.697021	-0.035553	
-0.699158	-0.0408936	
-0.699768	-0.0436401	
-0.701294	-0.0454712	
-0.703735	-0.045929	
-0.704346	-0.045166	
-0.707092	-0.0442505	
-0.709229	-0.0422668	
-0.709534	-0.0413513	
-0.711365	-0.0411987	
-0.714417	-0.0408936	
-0.713501	-0.0396729	
-0.714111	-0.0375366	
-0.716553	-0.0331116	
-0.718689	-0.0299072	
-0.718994	-0.0280762	
-0.718689	-0.0267029	
-0.72113	-0.0265503	
-0.723267	-0.0268555	
-0.726624	-0.0297546	
-0.727844	-0.0323486	
-0.72876	-0.0334167	
-0.731506	-0.0334167	
-0.733032	-0.0334167	
-0.733643	-0.0334167	
-0.733643	-0.0346375	
-0.735779	-0.0363159	
-0.73761	-0.0396729	
-0.738831	-0.0434875	
-0.738525	-0.0445557	
-0.740662	-0.0436401	
-0.743103	-0.042572	
-0.743408	-0.040741	
-0.74646	-0.0393677	
-0.747681	-0.0396729	
-0.750122	-0.0402832	
-0.753479	-0.0411987	
-0.753784	-0.0410461	
-0.756226	-0.0402832	
-0.758057	-0.0390625	
-0.758057	-0.0375366	
-0.758972	-0.03479	
-0.760498	-0.0311279	
-0.763245	-0.0292969	
-0.765686	-0.0285339	
-0.767517	-0.0279236	
-0.767212	-0.0256348	
-0.771179	-0.0253296	
-0.7724	-0.0257874	
-0.773315	-0.0271606	
-0.774841	-0.0291443	
-0.777893	-0.030365	
-0.777893	-0.0323486	
-0.779419	-0.0323486	
-0.782471	-0.0315857	
-0.785217	-0.0305176	
-0.787659	-0.0292969	
-0.787964	-0.0279236	
-0.787659	-0.0257874	
-0.789795	-0.0236511	
-0.791626	-0.0212097	
-0.792847	-0.0190735	
-0.794983	-0.0192261	
-0.797119	-0.0189209	
-0.799866	-0.0189209	
-0.802307	-0.0189209	
-0.802917	-0.0189209	
-0.802612	-0.0187683	
-0.802917	-0.0205994	
-0.802307	-0.0234985	
-0.804138	-0.0282288	
-0.80719	-0.0338745	
-0.807495	-0.0401306	
-0.807495	-0.045166	
-0.807495	-0.0495911	
-0.809937	-0.0531006	
-0.812073	-0.0549316	
-0.812683	-0.0547791	
-0.812073	-0.0527954	
-0.812683	-0.0494385	
-0.815125	-0.0445557	
-0.817261	-0.0369263	
-0.817871	-0.0280762	
-0.819702	-0.0210571	
-0.818787	-0.0166321	
-0.820313	-0.01297	
-0.821533	-0.00900269	
-0.822449	-0.0062561	
-0.823059	-0.00305176	
-0.82428	-0.000457764	
-0.827026	0.0012207	
-0.827332	0.00274658	
-0.827637	0.00366211	
-0.827942	0.0050354	
-0.829468	0.00518799	
-0.831909	0.00457764	
-0.832214	0.00335693	
-0.83252	0.00213623	
-0.83252	0	
-0.834656	-0.00213623	
-0.836487	-0.00473022	
-0.837402	-0.0062561	
-0.839233	-0.00762939	
-0.841675	-0.00946045	
-0.84198	-0.0112915	
-0.844421	-0.0115967	
-0.845947	-0.0106812	
-0.847778	-0.00946045	
-0.848694	-0.00732422	
-0.851135	-0.00427246	
-0.852356	-0.00198364	
-0.854492	0.000305176	
-0.856323	0.00167847	
-0.856934	0.00335693	
-0.859375	0.00640869	
-0.861511	0.0111389	
-0.860901	0.0161743	
-0.863342	0.020752	
-0.865784	0.0250244	
-0.865479	0.0285339	
-0.868835	0.0323486	
-0.871277	0.0350952	
-0.870972	0.0376892	
-0.873413	0.0393677	
-0.875244	0.0396729	
-0.878296	0.0384521	
-0.881042	0.0369263	
-0.884094	0.0346375	
-0.883484	0.0332642	
-0.881653	0.0317383	
-0.883484	0.0306702	
-0.885315	0.0300598	
-0.888672	0.0297546	
-0.889893	0.0282288	
-0.890808	0.025177	
-0.891113	0.0224304	
-0.89325	0.0205994	
-0.894775	0.0213623	
-0.896301	0.0219727	
-0.895996	0.0234985	
-0.898438	0.0248718	
-0.900269	0.0259399	
-0.901184	0.0262451	
-0.900879	0.025177	
-0.903015	0.0244141	
-0.905457	0.0224304	
-0.905151	0.0204468	
-0.905762	0.0201416	
-0.908203	0.0201416	
-0.910339	0.0210571	
-0.912781	0.0228882	
-0.914917	0.0253296	
-0.915527	0.0285339	
-0.917358	0.032196	
-0.920715	0.0350952	
-0.92041	0.0367737	
-0.922546	0.0363159	
-0.925293	0.0346375	
-0.925293	0.0320435	
-0.927124	0.0286865	
-0.929871	0.0250244	
-0.933228	0.0216675	
-0.934753	0.0180054	
-0.934448	0.014801	
-0.937805	0.0131226	
-0.939331	0.0135803	
-0.940552	0.0143433	
-0.942993	0.0158691	
-0.945129	0.0178528	
-0.945435	0.0186157	
-0.94696	0.0172424	
-0.949707	0.0151062	
-0.951538	0.0134277	
-0.954285	0.0119019	
-0.956726	0.0109863	
-0.959167	0.01297	
-0.961914	0.0172424	
-0.96405	0.0219727	
-0.964355	0.027771	
-0.967712	0.0338745	
-0.969238	0.0404358	
-0.971985	0.0479126	
-0.974121	0.0553894	
-0.974426	0.0596619	
-0.976868	0.0621033	
-0.98114	0.0628662	
-0.983887	0.0610352	
-0.984802	0.0570679	
-0.987244	0.0506592	
-0.988464	0.0444031	
-0.991516	0.0395203	
-0.993652	0.03479	
-0.994873	0.032196	
-0.997009	0.0285339	
-0.998535	0.0231934	
-0.99884	0.0183105	
-1.0022	0.0131226	
-1.00311	0.00747681	
-1.00403	0.00152588	
-1.00677	-0.00534058	
-1.0083	-0.0128174	
-1.01135	-0.018158	
-1.01196	-0.022583	
-1.01196	-0.0253296	
-1.01288	-0.0265503	
-1.01624	-0.0273132	
-1.01807	-0.0273132	
-1.01868	-0.0274658	
-1.01898	-0.0280762	
-1.02142	-0.0294495	
-1.02295	-0.0325012	
-1.02539	-0.0367737	
-1.02539	-0.042572	
-1.02661	-0.0494385	
-1.03058	-0.0559998	
-1.03241	-0.0613403	
-1.03333	-0.0663757	
-1.03302	-0.0706482	
-1.03516	-0.0744629	
-1.03821	-0.0784302	
-1.0376	-0.0822449	
-1.03851	-0.0854492	
-1.03943	-0.0875854	
-1.04218	-0.0895691	
-1.0437	-0.0904846	
-1.04279	-0.0921631	
-1.04492	-0.0914001	
-1.04706	-0.0904846	
-1.04767	-0.0906372	
-1.04828	-0.0927734	
-1.05011	-0.0950623	
-1.05255	-0.0967407	
-1.05286	-0.0971985	
-1.0553	-0.0961304	
-1.05621	-0.0944519	
-1.05835	-0.0923157	
-1.06018	-0.090332	
-1.06232	-0.0891113	
-1.06323	-0.0871277	
-1.06506	-0.0848389	
-1.0672	-0.0822449	
-1.06781	-0.0805664	
-1.06781	-0.0794983	
-1.06781	-0.078125	
-1.07086	-0.0785828	
-1.07178	-0.0778198	
-1.07483	-0.0752258	
-1.07483	-0.0727844	
-1.07544	-0.0700378	
-1.07697	-0.0688171	
-1.07727	-0.0672913	
-1.08063	-0.0660706	
-1.08154	-0.0656128	
-1.08246	-0.0663757	
-1.08307	-0.0683594	
-1.08459	-0.0689697	
-1.08734	-0.0683594	
-1.08948	-0.0672913	
-1.09131	-0.065155	
-1.09222	-0.0627136	
-1.09253	-0.0604248	
-1.09253	-0.0570679	
-1.09467	-0.0524902	
-1.0965	-0.0485229	
-1.0968	-0.0456238	
-1.09924	-0.0450134	
-1.10138	-0.0453186	
-1.10413	-0.0468445	
-1.10657	-0.0482178	
-1.10657	-0.0482178	
-1.10657	-0.0494385	
-1.10931	-0.0512695	
-1.11115	-0.0534058	
-1.11206	-0.0561523	
-1.11176	-0.057373	
-1.11359	-0.0592041	
-1.11633	-0.0619507	
-1.11725	-0.0663757	
-1.11908	-0.0708008	
-1.12091	-0.0750732	
-1.12183	-0.0790405	
-1.12152	-0.083313	
-1.12488	-0.0872803	
-1.1261	-0.0900269	
-1.12671	-0.0918579	
-1.12915	-0.092926	
-1.13037	-0.0953674	
-1.1319	-0.0968933	
-1.13403	-0.098114	
-1.13586	-0.0985718	
-1.13892	-0.0976563	
-1.14075	-0.0958252	
-1.14166	-0.0933838	
-1.1438	-0.0926208	
-1.14532	-0.0927734	
-1.14655	-0.0932312	
-1.14624	-0.0946045	
-1.14868	-0.0946045	
-1.15021	-0.093689	
-1.15143	-0.0920105	
-1.15082	-0.0894165	
-1.15387	-0.0874329	
-1.1554	-0.0836182	
-1.15662	-0.0799561	
-1.15814	-0.0767517	
-1.16089	-0.0727844	
-1.16119	-0.0700378	
-1.1618	-0.068512	
-1.1615	-0.0682068	
-1.16119	-0.0671387	
-1.16333	-0.0660706	
-1.16516	-0.0657654	
-1.16608	-0.0645447	
-1.16852	-0.0619507	
-1.17035	-0.0579834	
-1.17126	-0.0553894	
-1.17096	-0.0547791	
-1.17065	-0.0553894	
-1.1731	-0.0566101	
-1.17493	-0.0593567	
-1.17584	-0.0627136	
-1.17645	-0.0656128	
-1.17615	-0.0674438	
-1.17798	-0.0679016	
-1.17981	-0.0669861	
-1.18011	-0.065155	
-1.18073	-0.0627136	
-1.18103	-0.0604248	
-1.18073	-0.0570679	
-1.18286	-0.0515747	
-1.185	-0.0456238	
-1.185	-0.0411987	
-1.18652	-0.0384521	
-1.18744	-0.0358582	
-1.18866	-0.0340271	
-1.19019	-0.0331116	
-1.19049	-0.0315857	
-1.19049	-0.032959	
-1.19019	-0.0363159	
-1.19263	-0.0398254	
-1.19476	-0.043335	
-1.19751	-0.0471497	
-1.19751	-0.050354	
-1.19781	-0.0532532	
-1.19995	-0.0549316	
-1.20056	-0.055542	
-1.2027	-0.0549316	
-1.20422	-0.052948	
-1.20514	-0.0509644	
-1.20728	-0.0508118	
-1.21002	-0.0506592	
-1.20941	-0.0506592	
-1.21002	-0.0491333	
-1.21002	-0.0460815	
-1.21277	-0.0422668	
-1.21643	-0.0384521	
-1.21918	-0.0358582	
-1.2204	-0.0332642	
-1.21979	-0.0317383	
-1.22192	-0.0311279	
-1.22437	-0.0320435	
-1.22498	-0.0334167	
-1.22772	-0.0344849	
-1.22864	-0.0364685	
-1.23016	-0.0389099	
-1.2323	-0.0413513	
-1.23383	-0.0428772	
-1.23718	-0.045166	
-1.23932	-0.0483704	
-1.24023	-0.0509644	
-1.24176	-0.0537109	
-1.2439	-0.0547791	
-1.24664	-0.055542	
-1.24847	-0.0549316	
-1.24908	-0.0518799	
-1.25153	-0.0486755	
-1.2558	-0.0450134	
-1.25793	-0.0401306	
-1.25916	-0.0352478	
-1.2616	-0.0306702	
-1.26251	-0.025177	
-1.26617	-0.0204468	
-1.26862	-0.014801	
-1.26892	-0.00900269	
-1.27136	-0.0038147	
-1.27319	0.00198364	
-1.2735	0.00915527	
-1.27655	0.0149536	
-1.27777	0.0201416	
-1.28082	0.0218201	
-1.28082	0.0233459	
-1.28174	0.0236511	
-1.28296	0.0222778	
-1.28357	0.0205994	
-1.28601	0.0189209	
-1.28784	0.0183105	
-1.28906	0.0177002	
-1.28906	0.0183105	
-1.2915	0.0204468	
-1.29303	0.0236511	
-1.29395	0.0274658	
-1.29578	0.0311279	
-1.29791	0.0354004	
-1.29791	0.0410461	
-1.29822	0.0479126	
-1.30127	0.0552368	
-1.30341	0.0636292	
-1.30371	0.0718689	
-1.30432	0.0769043	
-1.30341	0.0784302	
-1.30402	0.0830078	
-1.30341	0.0918579	
-1.30768	0.102539	
-1.315	0.115509	
-1.31714	0.127716	
-1.31805	0.139618	
-1.31836	0.149689	
-1.3208	0.158691	
-1.32294	0.167999	
-1.32599	0.179596	
-1.3269	0.194397	
-1.32782	0.210724	
-1.32813	0.228882	
-1.32813	0.246124	
-1.32813	0.263672	
-1.32813	0.282288	
-1.32782	0.302887	
-1.33057	0.323792	
-1.3324	0.346985	
-1.3327	0.369873	
-1.33514	0.391541	
-1.33911	0.411072	
-1.33942	0.427856	
-1.34064	0.443115	
-1.34155	0.455933	
-1.34491	0.466003	
-1.34705	0.473785	
-1.34979	0.481262	
-1.35132	0.487671	
-1.35254	0.493011	
-1.35254	0.498047	
-1.35468	0.503998	
-1.35651	0.509644	
-1.35925	0.517578	
-1.36139	0.529633	
-1.36261	0.543518	
-1.36475	0.557404	
-1.36658	0.56778	
-1.36963	0.572815	
-1.37085	0.573425	
-1.37177	0.570068	
-1.37451	0.561523	
-1.37634	0.549622	
-1.3797	0.535583	
-1.38123	0.518646	
-1.38184	0.500183	
-1.38458	0.482941	
-1.38641	0.462494	
-1.38641	0.435791	
-1.38916	0.403137	
-1.39343	0.364685	
-1.39557	0.326385	
-1.39709	0.289764	
-1.39709	0.257874	
-1.39709	0.231018	
-1.39893	0.20874	
-1.40045	0.190125	
-1.40167	0.175323	
-1.40198	0.163269	
-1.4035	0.154114	
-1.40869	0.146027	
-1.41022	0.140533	
-1.41144	0.138855	
-1.41357	0.139618	
-1.41632	0.140381	
-1.41571	0.140686	
-1.41846	0.137634	
-1.4209	0.132446	
-1.42181	0.124207	
-1.42151	0.113373	
-1.42365	0.101471	
-1.42548	0.0892639	
-1.42639	0.0787354	
-1.42578	0.0718689	
-1.42883	0.0671387	
-1.43005	0.0613403	
-1.43066	0.0546265	
-1.43097	0.0462341	
-1.43311	0.0386047	
-1.43463	0.0305176	
-1.43616	0.0221252	
-1.43829	0.0131226	
-1.43982	0.00320435	
-1.44104	-0.00900269	
-1.44043	-0.0242615	
-1.44287	-0.0427246	
-1.44592	-0.0627136	
-1.44531	-0.0836182	
-1.44867	-0.103607	
-1.4502	-0.119781	
-1.45081	-0.131531	
-1.45111	-0.139008	
-1.45264	-0.143738	
-1.45508	-0.145264	
-1.45599	-0.142517	
-1.4566	-0.135498	
-1.45813	-0.12558	
-1.45996	-0.113831	
-1.46271	-0.10025	
-1.46515	-0.0854492	
-1.46545	-0.0708008	
-1.46606	-0.0559998	
-1.4682	-0.043335	
-1.46973	-0.0334167	
-1.47034	-0.0253296	
-1.47278	-0.0193787	
-1.4743	-0.0160217	
-1.47552	-0.0135803	
-1.47522	-0.0111389	
-1.47766	-0.0106812	
-1.48041	-0.0120544	
-1.48285	-0.0143433	
-1.48438	-0.0184631	
-1.4856	-0.0242615	
-1.4856	-0.0302124	
-1.48773	-0.0370789	
-1.48895	-0.0445557	
-1.49231	-0.0511169	
-1.49353	-0.0550842	
-1.49445	-0.0595093	
-1.49506	-0.0637817	
-1.49475	-0.0686646	
-1.49719	-0.0735474	
-1.49963	-0.0776672	
-1.50177	-0.0793457	
-1.50452	-0.0802612	
-1.50513	-0.0785828	
-1.50482	-0.0753784	
-1.50726	-0.0726318	
-1.5094	-0.0700378	
-1.5097	-0.0668335	
-1.51001	-0.0630188	
-1.51184	-0.0604248	
-1.51337	-0.0569153	
-1.51428	-0.0524902	
-1.51672	-0.0476074	
-1.51947	-0.0437927	
-1.51886	-0.0398254	
-1.52161	-0.0354004	
-1.52374	-0.0311279	
-1.52435	-0.0283813	
-1.52618	-0.0260925	
-1.52893	-0.0241089	
-1.53137	-0.0238037	
-1.53351	-0.0231934	
-1.53687	-0.0218201	
-1.53564	-0.0224304	
-1.53687	-0.0234985	
-1.5387	-0.0248718	
-1.5387	-0.0257874	
-1.54175	-0.0262451	
-1.54388	-0.0263977	
-1.54633	-0.0271606	
-1.54816	-0.0292969	
-1.5509	-0.0332642	
-1.55365	-0.0396729	
-1.55396	-0.0469971	
-1.55426	-0.0541687	
-1.55579	-0.0613403	
-1.55762	-0.0697327	
-1.55884	-0.0784302	
-1.55884	-0.0842285	
-1.55884	-0.0869751	
-1.56097	-0.0871277	
-1.5625	-0.0857544	
-1.56525	-0.08255	
-1.56677	-0.0799561	
-1.56647	-0.0773621	
-1.56891	-0.0747681	
-1.56891	-0.0733948	
-1.57104	-0.0721741	
-1.57227	-0.0700378	
-1.57288	-0.0680542	
-1.57593	-0.0642395	
-1.57776	-0.0598145	
-1.57837	-0.0559998	
-1.57867	-0.0532532	
-1.57867	-0.0508118	
-1.58112	-0.0471497	
-1.58264	-0.0427246	
-1.58356	-0.0376892	
-1.58356	-0.0337219	
-1.58539	-0.0308228	
-1.58752	-0.0294495	
-1.58783	-0.0291443	
-1.59027	-0.0297546	
-1.5918	-0.0314331	
-1.59271	-0.0349426	
-1.59271	-0.0382996	
-1.59546	-0.0411987	
-1.59729	-0.0437927	
-1.5976	-0.0462341	
-1.59821	-0.0480652	
-1.59943	-0.0498962	
-1.60248	-0.0531006	
-1.60278	-0.0559998	
-1.60309	-0.0593567	
-1.60553	-0.0634766	
-1.60736	-0.0686646	
-1.60767	-0.0727844	
-1.60828	-0.0752258	
-1.61041	-0.0790405	
-1.61255	-0.08255	
-1.61377	-0.0845337	
-1.61316	-0.0840759	
-1.61316	-0.0820923	
-1.61255	-0.0798035	
-1.61499	-0.0769043	
-1.61713	-0.0721741	
-1.61743	-0.0665283	
-1.61804	-0.0595093	
-1.61957	-0.0531006	
-1.62262	-0.04776	
-1.62262	-0.0428772	
-1.62292	-0.0386047	
-1.62537	-0.0346375	
-1.62689	-0.0323486	
-1.6272	-0.0305176	
-1.6272	-0.0292969	
-1.62811	-0.0279236	
-1.63025	-0.0260925	
-1.63177	-0.0238037	
-1.63208	-0.0209045	
-1.63269	-0.0175476	
-1.63269	-0.0140381	
-1.63544	-0.012207	
-1.63696	-0.0119019	
-1.63727	-0.0114441	
-1.63757	-0.0108337	
-1.6391	-0.00869751	
-1.64093	-0.00717163	
-1.64185	-0.00595093	
-1.64215	-0.00366211	
-1.64429	-0.00305176	
-1.64612	-0.00457764	
-1.64734	-0.00595093	
-1.64673	-0.00671387	
-1.64673	-0.00747681	
-1.64948	-0.010376	
-1.651	-0.0141907	
-1.65161	-0.0175476	
-1.65436	-0.0231934	
-1.65588	-0.0286865	
-1.65649	-0.0334167	
-1.65924	-0.0375366	
-1.66107	-0.040741	
-1.66199	-0.0440979	
-1.66168	-0.045166	
-1.66382	-0.045166	
-1.66565	-0.0421143	
-1.66687	-0.0389099	
-1.6687	-0.0360107	
-1.67084	-0.032196	
-1.67084	-0.0286865	
-1.67419	-0.025177	
-1.67572	-0.0216675	
-1.67664	-0.0178528	
-1.67633	-0.0140381	
-1.67816	-0.0105286	
-1.68091	-0.00686646	
-1.68152	-0.00427246	
-1.68396	-0.00244141	
-1.6864	-0.00183105	
-1.68823	-0.00213623	
-1.69067	-0.00198364	
-1.69403	-0.00274658	
-1.69525	-0.00335693	
-1.69678	-0.00473022	
-1.6983	-0.00595093	
-1.70013	-0.00747681	
-1.70074	-0.00946045	
-1.70349	-0.0120544	
-1.70532	-0.0143433	
-1.70563	-0.0160217	
-1.70807	-0.0164795	
-1.71021	-0.0163269	
-1.71051	-0.0164795	
-1.71326	-0.0164795	
-1.71539	-0.015564	
-1.716	-0.0141907	
-1.71661	-0.0140381	
-1.71783	-0.0141907	
-1.71997	-0.0143433	
-1.72028	-0.0141907	
-1.72089	-0.0138855	
-1.72089	-0.0131226	
-1.72241	-0.0112915	
-1.72485	-0.0088501	
-1.72607	-0.00747681	
-1.72791	-0.00579834	
-1.73035	-0.0038147	
-1.73065	-0.00259399	
-1.73187	-0.00213623	
-1.73431	-0.00183105	
-1.73615	-0.00274658	
-1.73523	-0.00396729	
-1.73828	-0.00396729	
-1.73981	-0.00335693	
-1.74011	-0.00152588	
-1.74011	0.00183105	
-1.74255	0.00610352	
-1.745	0.0109863	
-1.7453	0.0149536	
-1.74744	0.0164795	
-1.74957	0.0154114	
-1.75018	0.0128174	
-1.75018	0.00808716	
-1.75201	0.00518799	
-1.75537	0.00244141	
-1.75476	0.000305176	
-1.7572	-0.00305176	
-1.75934	-0.00671387	
-1.76025	-0.00930786	
-1.75995	-0.0119019	
-1.7627	-0.0143433	
-1.76392	-0.0167847	
-1.76422	-0.0184631	
-1.76727	-0.0196838	
-1.76971	-0.0209045	
-1.76941	-0.0212097	
-1.76971	-0.0202942	
-1.77185	-0.0175476	
-1.7749	-0.0140381	
-1.7749	-0.010376	
-1.7746	-0.00671387	
-1.77673	-0.00396729	
-1.77948	-0.00137329	
-1.77948	0.000610352	
-1.77948	0.00366211	
-1.78223	0.00564575	
-1.78375	0.00915527	
-1.78528	0.0126648	
-1.7865	0.0154114	
-1.78894	0.0189209	
-1.78925	0.022583	
-1.78925	0.0263977	
-1.79199	0.0297546	
-1.79382	0.032959	
-1.79443	0.0344849	
-1.79504	0.0344849	
-1.79688	0.0332642	
-1.79932	0.0292969	
-1.79871	0.0234985	
-1.79901	0.0163269	
-1.80115	0.0100708	
-1.80359	0.00579834	
-1.80664	0.00396729	
-1.80542	0.00320435	
-1.80695	0.0038147	
-1.80817	0.00610352	
-1.81091	0.00717163	
-1.81305	0.0088501	
-1.81335	0.00976563	
-1.81641	0.0100708	
-1.81854	0.010376	
-1.81824	0.00946045	
-1.82037	0.00671387	
-1.82312	0.00183105	
-1.82404	-0.00274658	
-1.82587	-0.00671387	
-1.8277	-0.00869751	
-1.82861	-0.00900269	
-1.83075	-0.00915527	
-1.83258	-0.00839233	
-1.83319	-0.00518799	
-1.8338	-0.00198364	
-1.83563	0.00152588	
-1.83777	0.00549316	
-1.84113	0.00808716	
-1.84265	0.00976563	
-1.8457	0.00915527	
-1.84784	0.00747681	
-1.84814	0.00411987	
-1.85028	0.00259399	
-1.85333	0.00183105	
-1.85303	0.00106812	
-1.85577	0.000610352	
-1.85974	0.00213623	
-1.86188	0.00442505	
-1.8634	0.0062561	
-1.86523	0.00823975	
-1.86768	0.00991821	
-1.87012	0.0111389	
-1.87256	0.012207	
-1.87256	0.0132751	
-1.875	0.0158691	
-1.87683	0.019989	
-1.87988	0.0260925	
-1.88202	0.0343323	
-1.88538	0.0436401	
-1.88721	0.052948	
-1.88751	0.0621033	
-1.89026	0.0683594	
-1.89148	0.0695801	
-1.89301	0.0683594	
-1.89484	0.0653076	
-1.89667	0.06073	
-1.89758	0.0569153	
-1.89972	0.0540161	
-1.90155	0.0515747	
-1.90399	0.0480652	
-1.90674	0.0427246	
-1.90704	0.0379944	
-1.9101	0.0346375	
-1.91101	0.0323486	
-1.91406	0.0305176	
-1.91681	0.0306702	
-1.91925	0.0335693	
-1.92108	0.0379944	
-1.92474	0.0416565	
-1.92566	0.0444031	
-1.92871	0.045166	
-1.93146	0.0454712	
-1.93207	0.0457764	
-1.93481	0.0444031	
-1.93695	0.0453186	
-1.93909	0.0463867	
-1.94122	0.0476074	
-1.94183	0.0498962	
-1.94397	0.0512695	
-1.94611	0.0517273	
-1.94794	0.0508118	
-1.95068	0.0489807	
-1.9516	0.0476074	
-1.95129	0.0479126	
-1.95129	0.0495911	
-1.95343	0.0521851	
-1.95587	0.0535583	
-1.95587	0.0547791	
-1.95831	0.0570679	
-1.96014	0.0587463	
-1.96075	0.0588989	
-1.96106	0.0592041	
-1.9635	0.0592041	
-1.96503	0.0590515	
-1.96625	0.0592041	
-1.96625	0.0598145	
-1.96594	0.0614929	
-1.96625	0.0619507	
-1.96564	0.0614929	
-1.96808	0.0624084	
-1.96991	0.0636292	
-1.97144	0.0648499	
-1.97113	0.0660706	
-1.97418	0.0656128	
-1.97479	0.0636292	
-1.97571	0.0611877	
-1.97632	0.0588989	
-1.97815	0.0561523	
-1.97968	0.0535583	
-1.98029	0.0523376	
-1.98029	0.0509644	
-1.9812	0.0498962	
-1.9812	0.0506592	
-1.98364	0.0521851	
-1.98486	0.0544739	
-1.98547	0.0579834	
-1.98547	0.0614929	
-1.98547	0.0662231	
-1.98608	0.0717163	
-1.98822	0.0765991	
-1.98975	0.0808716	
-1.99036	0.0836182	
-1.9928	0.0843811	
-1.99524	0.0831604	
-1.99585	0.0814819	
-1.99585	0.0820923	
-1.99585	0.0831604	
-1.99646	0.0831604	
-1.99585	0.0849915	
-1.99554	0.0891113	
-1.99799	0.0949097	
-1.99921	0.100098	
-1.99982	0.102386	
-1.99982	0.102997	
-1.99982	0.102081	
-1.99982	0.0991821	
-2.00012	0.0952148	
-2.00073	0.0909424	
-2.00073	0.0878906	
-2.00073	0.0871277	
-2.00012	0.0880432	
-2.00043	0.088501	
-1.99982	0.0900269	
-2.00043	0.0933838	
-2.00104	0.0968933	
-2.00073	0.100708	
-1.99982	0.104065	
-1.99768	0.108643	
-1.9989	0.112	
-1.99768	0.112915	
-1.99615	0.112762	
-1.99524	0.112152	
-1.99493	0.108948	
-1.99371	0.105438	
-1.99066	0.101929	
-1.98822	0.0990295	
-1.98608	0.0976563	
-1.98578	0.0961304	
-1.98334	0.0956726	
-1.98151	0.0967407	
-1.97845	0.0978088	
-1.97388	0.0991821	
-1.97174	0.10025	
-1.96869	0.100555	
-1.96472	0.0997925	
-1.96228	0.0985718	
-1.95892	0.0973511	
-1.95435	0.0961304	
-1.94977	0.0947571	
-1.94489	0.092926	
-1.94	0.0906372	
-1.93573	0.0889587	
-1.93054	0.088501	
-1.92535	0.0881958	
-1.91803	0.0895691	
-1.91315	0.0904846	
-1.90765	0.0915527	
-1.90063	0.0939941	
-1.89423	0.0959778	
-1.88721	0.0993347	
-1.87866	0.102997	
-1.87195	0.105286	
-1.86432	0.105743	
-1.85486	0.106659	
-1.84509	0.107727	
-1.83502	0.108795	
-1.82739	0.110779	
-1.81976	0.113983	
-1.81091	0.11795	
-1.80054	0.12085	
-1.79108	0.124054	
-1.77917	0.127411	
-1.76788	0.130615	
-1.7569	0.131989	
-1.74438	0.134125	
-1.73279	0.137482	
-1.72089	0.140076	
-1.70807	0.143738	
-1.69556	0.146484	
-1.68365	0.1474	
-1.67175	0.145416	
-1.65741	0.140686	
-1.64215	0.134583	
-1.62994	0.129547	
-1.61682	0.125427	
-1.60339	0.121765	
-1.586	0.117798	
-1.56921	0.116882	
-1.55426	0.116577	
-1.53931	0.114899	
-1.52435	0.112457	
-1.51001	0.110016	
-1.49475	0.106506	
-1.47827	0.103302	
-1.46149	0.10025	
-1.4444	0.0996399	
-1.42731	0.102844	
-1.4093	0.110321	
-1.39282	0.119324	
-1.37512	0.128174	
-1.3562	0.13504	
-1.3385	0.140686	
-1.32111	0.143738	
-1.30188	0.143585	
-1.28296	0.141144	
-1.26434	0.137787	
-1.24847	0.132904	
-1.22864	0.127258	
-1.20941	0.12207	
-1.18927	0.11795	
-1.16974	0.115051	
-1.15021	0.111694	
-1.13007	0.108185	
-1.11084	0.105286	
-1.091	0.101776	
-1.07178	0.0973511	
-1.0495	0.091095	
-1.03027	0.0830078	
-1.01257	0.0750732	
-0.990601	0.0675964	
-0.969238	0.0604248	
-0.948792	0.052948	
-0.92926	0.0465393	
-0.909729	0.0415039	
-0.889587	0.0366211	
-0.869751	0.0328064	
-0.851135	0.0296021	
-0.828247	0.0271606	
-0.809021	0.0245667	
-0.788879	0.0222778	
-0.767822	0.0195313	
-0.747986	0.0170898	
-0.727234	0.0158691	
-0.707703	0.0164795	
-0.688171	0.017395	
-0.668945	0.0178528	
-0.649109	0.0184631	
-0.631409	0.0201416	
-0.614624	0.0222778	
-0.595398	0.0241089	
-0.575256	0.0263977	
-0.555115	0.0282288	
-0.536499	0.0292969	
-0.516357	0.0289917	
-0.496826	0.027771	
-0.47699	0.0267029	
-0.459595	0.0245667	
-0.44281	0.0224304	
-0.423279	0.019989	
-0.403748	0.0172424	
-0.385742	0.015564	
-0.368652	0.0143433	
-0.348816	0.0132751	
-0.329895	0.0119019	
-0.310669	0.0111389	
-0.290833	0.00946045	
-0.270996	0.00823975	
-0.251465	0.00701904	
-0.232239	0.00457764	
-0.212097	0.00244141	
-0.192566	0.000305176	
-0.173035	-0.00289917	
-0.153809	-0.00671387	
-0.134277	-0.00915527	
-0.114136	-0.0102234	
-0.0942993	-0.00961304	
-0.0747681	-0.00930786	
-0.0552368	-0.00915527	
-0.032959	-0.00915527	
-0.0119019	-0.00915527	
0.00793457	-0.00930786	
0.027771	-0.0100708	
0.0497437	-0.0120544	
0.071106	-0.0143433	
0.0915527	-0.0187683	
0.113525	-0.025177	
0.135193	-0.0314331	
0.15564	-0.0366211	
0.177307	-0.0408936	
0.19928	-0.0430298	
0.219116	-0.0439453	
0.239258	-0.0445557	
0.26123	-0.0430298	
0.281982	-0.0390625	
0.304871	-0.0341797	
0.326233	-0.032959	
0.34729	-0.0341797	
0.368652	-0.0363159	
0.39032	-0.038147	
0.411072	-0.0382996	
0.430603	-0.0386047	
0.451965	-0.0392151	
0.473938	-0.0430298	
0.494385	-0.0502014	
0.514221	-0.0595093	
0.535583	-0.067749	
0.557251	-0.0741577	
0.577087	-0.0787354	
0.599976	-0.0808716	
0.618896	-0.0820923	
0.638123	-0.0830078	
0.658569	-0.0816345	
0.680542	-0.0816345	
0.700378	-0.0823975	
0.719604	-0.0822449	
0.739441	-0.0827026	
0.759277	-0.08255	
0.776062	-0.08255	
0.794373	-0.08255	
0.813293	-0.08255	
0.832825	-0.08255	
0.852661	-0.0827026	
0.869446	-0.08255	
0.887756	-0.0819397	
0.904846	-0.080719	
0.923767	-0.0804138	
0.942993	-0.0794983	
0.960083	-0.0790405	
0.975647	-0.0798035	
0.993347	-0.0810242	
1.008	-0.0823975	
1.02325	-0.0831604	
1.03729	-0.0846863	
1.05194	-0.0857544	
1.0675	-0.0878906	
1.08429	-0.0898743	
1.10138	-0.0920105	
1.11603	-0.0923157	
1.13129	-0.0915527	
1.1438	-0.0900269	
1.1557	-0.0892639	
1.17035	-0.0869751	
1.185	-0.0854492	
1.19781	-0.0849915	
1.21002	-0.0840759	
1.22101	-0.0830078	
1.23291	-0.0817871	
1.2442	-0.0798035	
1.25671	-0.0765991	
1.26709	-0.072937	
1.27869	-0.0694275	
1.29028	-0.0646973	
1.30096	-0.0601196	
1.31073	-0.0556946	
1.32111	-0.0521851	
1.33026	-0.0494385	
1.34033	-0.0483704	
1.34796	-0.0500488	
1.35834	-0.0543213	
1.36719	-0.0593567	
1.37573	-0.0619507	
1.38489	-0.0630188	
1.39252	-0.0621033	
1.40015	-0.0604248	
1.40747	-0.0576782	
1.41449	-0.055542	
1.42426	-0.0527954	
1.43158	-0.0505066	
1.43707	-0.0495911	
1.44409	-0.0514221	
1.45111	-0.0537109	
1.4566	-0.0558472	
1.46484	-0.0595093	
1.47064	-0.0619507	
1.47675	-0.0630188	
1.48071	-0.0630188	
1.48621	-0.0628662	
1.49048	-0.0622559	
1.49567	-0.0611877	
1.50055	-0.06073	
1.50574	-0.0604248	
1.50757	-0.0617981	
1.51093	-0.0628662	
1.5152	-0.0628662	
1.51764	-0.0621033	
1.52069	-0.0613403	
1.52527	-0.0608826	
1.52832	-0.0605774	
1.52924	-0.0614929	
1.53107	-0.0630188	
1.5332	-0.0648499	
1.53595	-0.0680542	
1.53748	-0.0714111	
1.53809	-0.0749207	
1.53839	-0.0779724	
1.54114	-0.0814819	
1.54297	-0.085144	
1.54327	-0.087738	
1.54572	-0.0900269	
1.54816	-0.0917053	
1.54846	-0.0924683	
1.54907	-0.0912476	
1.54755	-0.0888062	
1.54877	-0.0836182	
1.54846	-0.0773621	
1.54846	-0.0732422	
1.54846	-0.0694275	
1.54846	-0.065918	
1.54846	-0.0630188	
1.54785	-0.0610352	
1.54877	-0.0608826	
1.54846	-0.0604248	
1.54785	-0.0593567	
1.54877	-0.0588989	
1.54846	-0.057373	
1.54633	-0.0570679	
1.54449	-0.058136	
1.54327	-0.0590515	
1.54358	-0.0592041	
1.54144	-0.0584412	
1.539	-0.058136	
1.5387	-0.058136	
1.53656	-0.0592041	
1.53381	-0.0611877	
1.53381	-0.0634766	
1.53412	-0.0665283	
1.53107	-0.0686646	
1.52649	-0.0692749	
1.52435	-0.0700378	
1.521	-0.0704956	
1.52008	-0.0698853	
1.51672	-0.0675964	
1.51459	-0.0648499	
1.51154	-0.0631714	
1.50757	-0.0604248	
1.50482	-0.0578308	
1.50177	-0.0550842	
1.49811	-0.052948	
1.492	-0.050354	
1.48773	-0.0494385	
1.48407	-0.0480652	
1.48071	-0.0500488	
1.47522	-0.0532532	
1.47217	-0.0558472	
1.46576	-0.0575256	
1.46118	-0.0582886	
1.45844	-0.0578308	
1.45325	-0.0582886	
1.44806	-0.0579834	
1.44348	-0.058136	
1.43921	-0.058136	
1.43341	-0.0570679	
1.43005	-0.0552368	
1.42456	-0.052948	
1.41937	-0.0512695	
1.41205	-0.0500488	
1.40533	-0.0480652	
1.39984	-0.0463867	
1.39496	-0.045929	
1.38977	-0.0450134	
1.38306	-0.0430298	
1.37512	-0.040741	
1.36993	-0.038147	
1.36505	-0.0358582	
1.36047	-0.0340271	
1.35529	-0.0332642	
1.35132	-0.0344849	
1.34552	-0.035553	
1.3385	-0.0358582	
1.33087	-0.0361633	
1.32629	-0.0352478	
1.3208	-0.0332642	
1.31653	-0.0308228	
1.31134	-0.0291443	
1.30432	-0.0288391	
1.29669	-0.0306702	
1.29181	-0.0328064	
1.28693	-0.0344849	
1.28174	-0.0367737	
1.27472	-0.039978	
1.2677	-0.0434875	
1.26221	-0.0469971	
1.25519	-0.0518799	
1.24817	-0.0566101	
1.24298	-0.0604248	
1.23749	-0.0622559	
1.2326	-0.0630188	
1.22559	-0.0621033	
1.21887	-0.0602722	
1.21338	-0.0584412	
1.20819	-0.0585938	
1.20117	-0.0582886	
1.19415	-0.0598145	
1.18805	-0.0637817	
1.18073	-0.0688171	
1.17462	-0.0726318	
1.16913	-0.0747681	
1.16455	-0.0741577	
1.15936	-0.0708008	
1.15234	-0.0643921	
1.14532	-0.0561523	
1.13983	-0.0476074	
1.1322	-0.0392151	
1.12549	-0.0306702	
1.11969	-0.0234985	
1.1145	-0.0187683	
1.10992	-0.0161743	
1.1026	-0.0146484	
1.09619	-0.014801	
1.09039	-0.0169373	
1.08551	-0.0210571	
1.07788	-0.0259399	
1.07391	-0.0296021	
1.0675	-0.0338745	
1.0614	-0.0363159	
1.05652	-0.0387573	
1.04889	-0.0415039	
1.04431	-0.0447083	
1.03821	-0.0492859	
1.0318	-0.0523376	
1.02692	-0.0531006	
1.02142	-0.0535583	
1.01685	-0.0537109	
1.01227	-0.0553894	
1.00525	-0.0566101	
0.999756	-0.0587463	
0.994263	-0.0592041	
0.988159	-0.058136	
0.982361	-0.0552368	
0.978088	-0.0527954	
0.972595	-0.0514221	
0.967712	-0.0511169	
0.962219	-0.0515747	
0.957336	-0.0527954	
0.952759	-0.052948	
0.944824	-0.0526428	
0.939331	-0.0515747	
0.935974	-0.0498962	
0.932312	-0.04776	
0.926208	-0.0453186	
0.918884	-0.0428772	
0.913391	-0.0411987	
0.908813	-0.0418091	
0.904236	-0.0428772	
0.898438	-0.042572	
0.89386	-0.0408936	
0.890808	-0.0387573	
0.88562	-0.0384521	
0.879211	-0.0393677	
0.874329	-0.0405884	
0.868835	-0.0408936	
0.864868	-0.0418091	
0.859375	-0.0422668	
0.852661	-0.0411987	
0.848083	-0.0401306	
0.844421	-0.0389099	
0.839844	-0.0392151	
0.835571	-0.0402832	
0.830383	-0.0411987	
0.825195	-0.0393677	
0.818787	-0.035553	
0.811157	-0.0314331	
0.8078	-0.0286865	
0.802307	-0.0267029	
0.798645	-0.0265503	
0.792847	-0.0254822	
0.788574	-0.0227356	
0.785217	-0.0189209	
0.780945	-0.0164795	
0.776367	-0.0135803	
0.769043	-0.0126648	
0.764465	-0.0144958	
0.760498	-0.0169373	
0.756836	-0.0193787	
0.751648	-0.020752	
0.74585	-0.0213623	
0.742188	-0.0216675	
0.736389	-0.0212097	
0.732422	-0.0222778	
0.728149	-0.025177	
0.722046	-0.0286865	
0.718994	-0.0311279	
0.716248	-0.032959	
0.711975	-0.0335693	
0.707397	-0.0337219	
0.701904	-0.0350952	
0.700073	-0.0401306	
0.697021	-0.04776	
0.692139	-0.0575256	
0.687256	-0.065918	
0.682983	-0.0721741	
0.680542	-0.0746155	
0.677185	-0.0744629	
0.673828	-0.0723267	
0.670471	-0.0700378	
0.667725	-0.0675964	
0.663147	-0.065918	
0.657959	-0.0663757	
0.653076	-0.0675964	
0.65033	-0.0674438	
0.647583	-0.0671387	
0.643616	-0.0648499	
0.641174	-0.0621033	
0.638123	-0.0585938	
0.63324	-0.0564575	
0.628967	-0.0532532	
0.626221	-0.0505066	
0.623169	-0.0482178	
0.618896	-0.0456238	
0.616455	-0.0422668	
0.613708	-0.0361633	
0.611267	-0.0288391	
0.608826	-0.0233459	
0.603943	-0.0190735	
0.602112	-0.0172424	
0.598755	-0.0163269	
0.597229	-0.0163269	
0.593262	-0.0175476	
0.589294	-0.0198364	
0.586548	-0.0218201	
0.583496	-0.0256348	
0.578918	-0.0312805	
0.577393	-0.0364685	
0.574036	-0.0418091	
0.571899	-0.0471497	
0.569458	-0.0506592	
0.567322	-0.0526428	
0.56427	-0.0521851	
0.561829	-0.0509644	
0.559387	-0.0509644	
0.557556	-0.0505066	
0.554199	-0.0508118	
0.549622	-0.0514221	
0.547485	-0.0538635	
0.54718	-0.0549316	
0.544739	-0.0558472	
0.542603	-0.0547791	
0.541992	-0.0537109	
0.540161	-0.0515747	
0.538025	-0.0476074	
0.535278	-0.0428772	
0.533752	-0.0378418	
0.52948	-0.0317383	
0.528259	-0.0259399	
0.528259	-0.019989	
0.526733	-0.0135803	
0.525818	-0.00747681	
0.523682	-0.000915527	
0.522766	0.00457764	
0.520325	0.00717163	
0.517883	0.0062561	
0.514832	0.00244141	
0.513611	-0.00442505	
0.512695	-0.0123596	
0.513306	-0.0209045	
0.512695	-0.0296021	
0.510559	-0.0372314	
0.508118	-0.0445557	
0.508118	-0.0514221	
0.505371	-0.055542	
0.50415	-0.058136	
0.503235	-0.0608826	
0.50293	-0.0636292	
0.500793	-0.065155	
0.498657	-0.0645447	
0.498047	-0.0630188	
0.497742	-0.0601196	
0.497437	-0.0575256	
0.497437	-0.0552368	
0.495605	-0.0509644	
0.493469	-0.0448608	
0.491028	-0.0392151	
0.488586	-0.0358582	
0.487671	-0.0332642	
0.488281	-0.0311279	
0.485535	-0.0282288	
0.484009	-0.0276184	
0.483093	-0.0292969	
0.483398	-0.0325012	
0.480652	-0.0370789	
0.479126	-0.0408936	
0.4776	-0.0437927	
0.478821	-0.0453186	
0.475769	-0.0456238	
0.474243	-0.0448608	
0.473633	-0.0427246	
0.470886	-0.0419617	
0.469055	-0.0405884	
0.46875	-0.0418091	
0.46875	-0.0447083	
0.466003	-0.0489807	
0.464172	-0.0532532	
0.461426	-0.0559998	
0.458984	-0.057373	
0.457153	-0.057373	
0.454102	-0.0552368	
0.454407	-0.0537109	
0.451355	-0.0524902	
0.449219	-0.0502014	
0.446472	-0.0482178	
0.444336	-0.0463867	
0.443726	-0.0460815	
0.441284	-0.0453186	
0.439453	-0.0431824	
0.437012	-0.0404358	
0.432129	-0.038147	
0.429688	-0.0364685	
0.429077	-0.0360107	
0.426941	-0.0361633	
0.4245	-0.0360107	
0.422058	-0.0360107	
0.419312	-0.0361633	
0.419312	-0.0350952	
0.416565	-0.0349426	
0.415039	-0.0349426	
0.411987	-0.0331116	
0.410156	-0.0308228	
0.407104	-0.0276184	
0.404663	-0.0248718	
0.404358	-0.0241089	
0.404053	-0.0228882	
0.401917	-0.0209045	
0.397949	-0.0186157	
0.395508	-0.0172424	
0.394592	-0.0158691	
0.392456	-0.0149536	
0.391235	-0.0143433	
0.387268	-0.0152588	
0.385742	-0.0180054	
0.385437	-0.0222778	
0.385742	-0.0271606	
0.383301	-0.0317383	
0.379944	-0.0369263	
0.378113	-0.0408936	
0.376892	-0.0437927	
0.375977	-0.0454712	
0.376282	-0.0466919	
0.373535	-0.0488281	
0.371094	-0.0512695	
0.371094	-0.0526428	
0.368347	-0.0544739	
0.366211	-0.0553894	
0.365601	-0.0558472	
0.363464	-0.0549316	
0.361633	-0.0547791	
0.360413	-0.0553894	
0.358276	-0.055542	
0.354309	-0.0558472	
0.352173	-0.0546265	
0.350342	-0.052948	
0.350037	-0.0495911	
0.348816	-0.045929	
0.345764	-0.0422668	
0.344849	-0.0384521	
0.343323	-0.0360107	
0.342102	-0.0341797	
0.338745	-0.0346375	
0.336914	-0.0366211	
0.335388	-0.0378418	
0.335388	-0.0384521	
0.333862	-0.0382996	
0.331421	-0.0376892	
0.331421	-0.0357056	
0.330505	-0.0325012	
0.328064	-0.0286865	
0.326538	-0.0267029	
0.325928	-0.0263977	
0.323486	-0.0265503	
0.324097	-0.0274658	
0.322876	-0.0299072	
0.322266	-0.0337219	
0.321045	-0.0357056	
0.321045	-0.0352478	
0.32074	-0.0334167	
0.319214	-0.0305176	
0.319519	-0.0285339	
0.317993	-0.0259399	
0.317383	-0.0244141	
0.315857	-0.0231934	
0.316467	-0.0228882	
0.315857	-0.0233459	
0.314026	-0.0245667	
0.3125	-0.0267029	
0.310669	-0.0300598	
0.311584	-0.032959	
0.311584	-0.0344849	
0.310669	-0.0344849	
0.308533	-0.0323486	
0.309143	-0.0282288	
0.309753	-0.0221252	
0.308838	-0.0158691	
0.306702	-0.0117493	
0.306702	-0.00869751	
0.305786	-0.00778198	
0.306091	-0.00961304	
0.30365	-0.0119019	
0.301514	-0.0141907	
0.301514	-0.0170898	
0.301514	-0.0198364	
0.301208	-0.0239563	
0.301514	-0.0263977	
0.301819	-0.0288391	
0.301819	-0.0312805	
0.301514	-0.0332642	
0.301819	-0.032959	
0.301514	-0.0314331	
0.301514	-0.0308228	
0.298767	-0.0320435	
0.297852	-0.0352478	
0.296631	-0.0393677	
0.296936	-0.0448608	
0.296936	-0.0500488	
0.297241	-0.0526428	
0.296326	-0.0524902	
0.296631	-0.0505066	
0.299072	-0.0479126	
0.301514	-0.0456238	
0.301208	-0.0431824	
0.301819	-0.0398254	
0.301208	-0.0354004	
0.301514	-0.0314331	
0.301819	-0.0292969	
0.301208	-0.0286865	
0.301819	-0.030365	
0.303955	-0.0343323	
0.304871	-0.0402832	
0.306091	-0.0460815	
0.306091	-0.0505066	
0.308533	-0.0534058	
0.310059	-0.0569153	
0.31189	-0.0605774	
0.313721	-0.0631714	
0.315857	-0.065918	
0.315857	-0.0672913	
0.318909	-0.0671387	
0.320435	-0.0657654	
0.320435	-0.0656128	
0.323486	-0.0665283	
0.325317	-0.0688171	
0.325928	-0.0708008	
0.328674	-0.0723267	
0.330505	-0.0730896	
0.333557	-0.0720215	
0.334778	-0.0701904	
0.338135	-0.0669861	
0.342102	-0.0622559	
0.342102	-0.057373	
0.343933	-0.0532532	
0.347595	-0.0508118	
0.350037	-0.0486755	
0.352783	-0.0483704	
0.354614	-0.0483704	
0.35553	-0.0466919	
0.357666	-0.043335	
0.359497	-0.0408936	
0.363159	-0.0382996	
0.362854	-0.0357056	
0.36377	-0.0341797	
0.365295	-0.0328064	
0.367126	-0.0317383	
0.369568	-0.030365	
0.37262	-0.0294495	
0.375366	-0.027771	
0.375366	-0.0276184	
0.377502	-0.0282288	
0.379639	-0.0285339	
0.379944	-0.027771	
0.382996	-0.0267029	
0.384216	-0.0259399	
0.385437	-0.0263977	
0.387573	-0.0271606	
0.389099	-0.0280762	
0.390015	-0.0294495	
0.392456	-0.0314331	
0.393677	-0.0338745	
0.394897	-0.0363159	
0.394592	-0.0389099	
0.394592	-0.0422668	
0.397034	-0.0476074	
0.398865	-0.0534058	
0.402222	-0.0585938	
0.403442	-0.0610352	
0.406799	-0.0588989	
0.408325	-0.0547791	
0.409241	-0.0497437	
0.409546	-0.045166	
0.412292	-0.039978	
0.413818	-0.0360107	
0.41687	-0.0341797	
0.418091	-0.0334167	
0.418701	-0.0344849	
0.421448	-0.0361633	
0.423279	-0.0392151	
0.426941	-0.0424194	
0.428162	-0.0450134	
0.429077	-0.0457764	
0.431519	-0.0460815	
0.43335	-0.045166	
0.434265	-0.0437927	
0.434265	-0.043335	
0.436096	-0.0447083	
0.438232	-0.0469971	
0.438843	-0.0518799	
0.441284	-0.0564575	
0.445557	-0.0604248	
0.447998	-0.0627136	
0.448914	-0.0631714	
0.451355	-0.0613403	
0.452576	-0.0570679	
0.455933	-0.0517273	
0.457764	-0.0447083	
0.458984	-0.0392151	
0.460815	-0.0358582	
0.462952	-0.0340271	
0.462952	-0.0337219	
0.466003	-0.0346375	
0.467834	-0.0363159	
0.468445	-0.0379944	
0.468445	-0.0393677	
0.471191	-0.0405884	
0.473328	-0.0408936	
0.475464	-0.0410461	
0.47821	-0.042572	
0.477905	-0.045929	
0.477905	-0.0495911	
0.477905	-0.052948	
0.480347	-0.0550842	
0.482788	-0.0541687	
0.483093	-0.0509644	
0.482788	-0.0474548	
0.483398	-0.0442505	
0.484009	-0.0434875	
0.483398	-0.0422668	
0.483704	-0.0415039	
0.485535	-0.0401306	
0.487671	-0.0379944	
0.488281	-0.0354004	
0.488586	-0.0335693	
0.487671	-0.032959	
0.487366	-0.0334167	
0.488281	-0.0344849	
0.490417	-0.0357056	
0.492554	-0.0350952	
0.493774	-0.0344849	
0.493469	-0.0326538	
0.492859	-0.0314331	
0.493774	-0.0315857	
0.493164	-0.0317383	
0.49469	-0.0340271	
0.497131	-0.0363159	
0.4953	-0.0387573	
0.495911	-0.0424194	
0.496521	-0.045929	
0.497131	-0.0476074	
0.498352	-0.0480652	
0.498047	-0.0491333	
0.497437	-0.050354	
0.497742	-0.0508118	
0.497437	-0.0511169	
0.498047	-0.0518799	
0.499573	-0.0526428	
0.502014	-0.0531006	
0.502319	-0.052948	
0.503235	-0.0531006	
0.502014	-0.0532532	
0.502319	-0.0524902	
0.505066	-0.0502014	
0.506897	-0.04776	
0.508118	-0.0450134	
0.507813	-0.0410461	
0.507813	-0.0387573	
0.510254	-0.0369263	
0.509644	-0.0317383	
0.511169	-0.0250244	
0.509949	-0.0180054	
0.510254	-0.0112915	
0.512085	-0.00808716	
0.51239	-0.00671387	
0.512085	-0.00778198	
0.51239	-0.010376	
0.512695	-0.014801	
0.514221	-0.0195313	
0.516968	-0.0236511	
0.515137	-0.0276184	
0.515442	-0.0312805	
0.514526	-0.0337219	
0.516357	-0.0375366	
0.516968	-0.0408936	
0.515442	-0.0445557	
0.515747	-0.0498962	
0.516663	-0.0575256	
0.517883	-0.0662231	
0.517273	-0.0738525	
0.517883	-0.0802612	
0.518188	-0.0840759	
0.516052	-0.0839233	
0.513916	-0.0816345	
0.514832	-0.0772095	
0.514832	-0.071106	
0.513611	-0.063324	
0.512695	-0.0540161	
0.512085	-0.0453186	
0.509949	-0.0376892	
0.508728	-0.0309753	
0.507507	-0.0256348	
0.508118	-0.0215149	
0.507202	-0.0195313	
0.505371	-0.0190735	
0.503235	-0.0187683	
0.502625	-0.0190735	
0.502625	-0.0187683	
0.502319	-0.0198364	
0.500183	-0.0210571	
0.498352	-0.0219727	
0.498352	-0.0250244	
0.495605	-0.0283813	
0.493774	-0.0325012	
0.491028	-0.0360107	
0.488892	-0.0398254	
0.487366	-0.0436401	
0.485535	-0.0471497	
0.484009	-0.0508118	
0.480957	-0.0535583	
0.479431	-0.0579834	
0.475769	-0.063324	
0.473633	-0.067749	
0.471497	-0.0698853	
0.46875	-0.0695801	
0.466614	-0.0679016	
0.465088	-0.0646973	
0.463562	-0.0617981	
0.461121	-0.0584412	
0.457153	-0.0552368	
0.454102	-0.052948	
0.451965	-0.0497437	
0.446167	-0.045166	
0.444641	-0.040741	
0.441589	-0.0379944	
0.439148	-0.0349426	
0.436707	-0.032196	
0.432739	-0.0312805	
0.429077	-0.0311279	
0.426025	-0.0302124	
0.424805	-0.0283813	
0.422363	-0.025177	
0.417175	-0.020752	
0.412292	-0.0175476	
0.410461	-0.0167847	
0.407715	-0.0183105	
0.402527	-0.0233459	
0.39978	-0.0291443	
0.397644	-0.0352478	
0.392761	-0.0401306	
0.39093	-0.0430298	
0.387878	-0.0445557	
0.383606	-0.0453186	
0.378418	-0.0466919	
0.373535	-0.0495911	
0.371094	-0.0541687	
0.368652	-0.0587463	
0.36377	-0.059967	
0.358582	-0.06073	
0.356445	-0.0598145	
0.353699	-0.0575256	
0.349121	-0.0552368	
0.344238	-0.0520325	
0.341492	-0.0480652	
0.338135	-0.0463867	
0.334473	-0.0450134	
0.330811	-0.0430298	
0.328674	-0.0424194	
0.324707	-0.0422668	
0.32196	-0.0424194	
0.318909	-0.0430298	
0.317383	-0.0444031	
0.314636	-0.0454712	
0.309753	-0.0466919	
0.306091	-0.0497437	
0.30426	-0.0532532	
0.299988	-0.0552368	
0.296631	-0.0566101	
0.294189	-0.0578308	
0.291748	-0.0578308	
0.289001	-0.0578308	
0.28717	-0.0572205	
0.284729	-0.0561523	
0.279846	-0.0549316	
0.27771	-0.0526428	
0.274353	-0.0514221	
0.272217	-0.0506592	
0.270081	-0.0494385	
0.267639	-0.0450134	
0.264587	-0.0413513	
0.262756	-0.037384	
0.26001	-0.0337219	
0.257874	-0.0315857	
0.255127	-0.0311279	
0.250549	-0.0311279	
0.247803	-0.0315857	
0.244751	-0.0334167	
0.242615	-0.0334167	
0.242004	-0.03479	
0.239868	-0.0357056	
0.235901	-0.0369263	
0.233765	-0.0379944	
0.233459	-0.0390625	
0.230713	-0.0411987	
0.228577	-0.0436401	
0.22583	-0.0463867	
0.221863	-0.0486755	
0.219421	-0.0512695	
0.219116	-0.0535583	
0.215759	-0.0550842	
0.212097	-0.055542	
0.208435	-0.0556946	
0.20874	-0.0566101	
0.206299	-0.0578308	
0.204468	-0.0590515	
0.201416	-0.0608826	
0.197144	-0.0617981	
0.192261	-0.0601196	
0.189514	-0.057373	
0.186157	-0.0546265	
0.184021	-0.0488281	
0.184021	-0.043335	
0.181274	-0.0370789	
0.177307	-0.0309753	
0.174866	-0.0263977	
0.171509	-0.0245667	
0.167236	-0.0247192	
0.16449	-0.0267029	
0.165405	-0.0283813	
0.162354	-0.0296021	
0.159912	-0.0308228	
0.15686	-0.0297546	
0.154724	-0.0254822	
0.154724	-0.0210571	
0.152283	-0.0175476	
0.147705	-0.0157166	
0.144958	-0.0131226	
0.142517	-0.00946045	
0.139465	-0.00671387	
0.140076	-0.0038147	
0.137024	-0.00213623	
0.135498	-0.00106812	
0.134888	0.00106812	
0.132446	0.00228882	
0.130615	0.00366211	
0.127869	0.00564575	
0.125122	0.00732422	
0.125122	0.00732422	
0.122375	0.00610352	
0.119934	0.00457764	
0.119324	0.00167847	
0.117798	-0.00289917	
0.115051	-0.00823975	
0.114746	-0.0149536	
0.112305	-0.022583	
0.110168	-0.0286865	
0.109558	-0.0349426	
0.108032	-0.0413513	
0.105896	-0.0457764	
0.105591	-0.0483704	
0.102844	-0.0502014	
0.100708	-0.0514221	
0.100403	-0.0523376	
0.0982666	-0.0547791	
0.0958252	-0.058136	
0.0949097	-0.06073	
0.0933838	-0.0634766	
0.0906372	-0.0660706	
0.0881958	-0.0691223	
0.0857544	-0.0735474	
0.0827026	-0.0776672	
0.0820923	-0.0802612	
0.0784302	-0.0831604	
0.0762939	-0.0845337	
0.0738525	-0.0852966	
0.0720215	-0.083313	
0.071106	-0.0798035	
0.0689697	-0.0764465	
0.0662231	-0.0730896	
0.0634766	-0.0700378	
0.0619507	-0.0674438	
0.0595093	-0.0650024	
0.0570679	-0.0636292	
0.0540161	-0.0634766	
0.0497437	-0.0621033	
0.0479126	-0.0613403	
0.0442505	-0.0592041	
0.0427246	-0.0549316	
0.0402832	-0.0500488	
0.0372314	-0.045929	
0.0344849	-0.0437927	
0.0320435	-0.0427246	
0.0292969	-0.0424194	
0.027771	-0.0428772	
0.0253296	-0.0422668	
0.0219727	-0.0404358	
0.0201416	-0.0382996	
0.0180054	-0.0357056	
0.0152588	-0.0338745	
0.0128174	-0.0340271	
0.010376	-0.0326538	
0.00793457	-0.0315857	
0.00518799	-0.0314331	
0.00274658	-0.0309753	
0.000305176	-0.032196	
-0.00152588	-0.0323486	
-0.00457764	-0.0308228	
-0.00732422	-0.0280762	
-0.0100708	-0.0268555	
-0.0134277	-0.0274658	
-0.0164795	-0.0280762	
-0.0195313	-0.0286865	
-0.0216675	-0.0286865	
-0.0250244	-0.0285339	
-0.0262451	-0.0292969	
-0.0296021	-0.0306702	
-0.0311279	-0.0318909	
-0.03479	-0.0343323	
-0.0378418	-0.0346375	
-0.0411987	-0.0331116	
-0.0439453	-0.0297546	
-0.0454712	-0.0254822	
-0.0488281	-0.0218201	
-0.0534058	-0.0186157	
-0.0561523	-0.0172424	
-0.0585938	-0.0158691	
-0.0634766	-0.0143433	
-0.0656128	-0.0140381	
-0.0689697	-0.0138855	
-0.0708008	-0.0134277	
-0.0735474	-0.0120544	
-0.0759888	-0.0117493	
-0.0784302	-0.0123596	
-0.0827026	-0.0137329	
-0.0845337	-0.014801	
-0.0878906	-0.0178528	
-0.0906372	-0.0224304	
-0.093689	-0.0260925	
-0.0967407	-0.0309753	
-0.098877	-0.0366211	
-0.102844	-0.0418091	
-0.10498	-0.0476074	
-0.108337	-0.0535583	
-0.109863	-0.059967	
-0.112	-0.0657654	
-0.115051	-0.0712585	
-0.117493	-0.0759888	
-0.119019	-0.0799561	
-0.122681	-0.0827026	
-0.124817	-0.0845337	
-0.127563	-0.085144	
-0.130005	-0.0843811	
-0.130005	-0.0822449	
-0.132141	-0.0801086	
-0.134277	-0.0776672	
-0.137939	-0.075531	
-0.13916	-0.0746155	
-0.140076	-0.0733948	
-0.142212	-0.0718689	
-0.147095	-0.0698853	
-0.149231	-0.0675964	
-0.151978	-0.0653076	
-0.154114	-0.0630188	
-0.154114	-0.0592041	
-0.157776	-0.0558472	
-0.159302	-0.0535583	
-0.162048	-0.0532532	
-0.163879	-0.0535583	
-0.166321	-0.0521851	
-0.168152	-0.050354	
-0.168762	-0.0488281	
-0.171509	-0.04776	
-0.17334	-0.0463867	
-0.176697	-0.0468445	
-0.180664	-0.0480652	
-0.1828	-0.0483704	
-0.186157	-0.0473022	
-0.188293	-0.0463867	
-0.191345	-0.045166	
-0.193176	-0.0430298	
-0.196533	-0.0393677	
-0.198669	-0.0341797	
-0.201416	-0.0276184	
-0.203247	-0.0218201	
-0.205994	-0.0180054	
-0.207825	-0.0140381	
-0.210876	-0.0119019	
-0.213013	-0.0108337	
-0.21637	-0.0105286	
-0.21759	-0.0111389	
-0.220947	-0.0117493	
-0.222778	-0.0126648	
-0.223999	-0.0146484	
-0.22522	-0.0170898	
-0.227966	-0.0202942	
-0.231018	-0.0238037	
-0.233459	-0.0256348	
-0.235291	-0.0263977	
-0.237732	-0.0253296	
-0.240479	-0.0236511	
-0.24292	-0.0210571	
-0.245361	-0.0186157	
-0.246887	-0.0154114	
-0.247192	-0.0115967	
-0.247192	-0.00915527	
-0.249634	-0.00946045	
-0.251465	-0.00991821	
-0.252991	-0.0137329	
-0.255432	-0.0190735	
-0.256348	-0.0253296	
-0.257568	-0.0323486	
-0.257568	-0.0376892	
-0.260315	-0.0410461	
-0.262756	-0.0440979	
-0.262451	-0.0471497	
-0.265808	-0.0506592	
-0.266724	-0.0531006	
-0.267944	-0.0550842	
-0.270386	-0.0556946	
-0.271606	-0.0564575	
-0.271912	-0.0585938	
-0.274658	-0.0610352	
-0.276794	-0.0637817	
-0.27771	-0.0648499	
-0.279541	-0.0645447	
-0.284424	-0.063324	
-0.286865	-0.0605774	
-0.286865	-0.0553894	
-0.286865	-0.050354	
-0.289917	-0.0450134	
-0.294189	-0.0401306	
-0.296326	-0.0360107	
-0.297241	-0.0334167	
-0.299072	-0.0299072	
-0.300903	-0.0262451	
-0.302429	-0.0224304	
-0.305176	-0.0187683	
-0.306702	-0.0180054	
-0.308533	-0.0193787	
-0.310974	-0.0216675	
-0.311584	-0.0244141	
-0.314331	-0.0274658	
-0.315552	-0.0302124	
-0.319214	-0.0318909	
-0.32074	-0.0332642	
-0.32135	-0.0334167	
-0.323792	-0.035553	
-0.325623	-0.0384521	
-0.329285	-0.0415039	
-0.330505	-0.0437927	
-0.331421	-0.0462341	
-0.333557	-0.0479126	
-0.335693	-0.0485229	
-0.335693	-0.0483704	
-0.33844	-0.0476074	
-0.340881	-0.0454712	
-0.343933	-0.0431824	
-0.345764	-0.0396729	
-0.346375	-0.0358582	
-0.348511	-0.0340271	
-0.350342	-0.0337219	
-0.351257	-0.0341797	
-0.353394	-0.037384	
-0.35553	-0.0415039	
-0.358887	-0.0468445	
-0.360413	-0.0517273	
-0.360718	-0.055542	
-0.363464	-0.058136	
-0.36499	-0.059967	
-0.365906	-0.0595093	
-0.368042	-0.0575256	
-0.370178	-0.0552368	
-0.370789	-0.0520325	
-0.371094	-0.0476074	
-0.37323	-0.0424194	
-0.375061	-0.0390625	
-0.376282	-0.0366211	
-0.375366	-0.0361633	
-0.378113	-0.0361633	
-0.380554	-0.0363159	
-0.38269	-0.0358582	
-0.384521	-0.0370789	
-0.385132	-0.0379944	
-0.388489	-0.0376892	
-0.389404	-0.0367737	
-0.390015	-0.035553	
-0.392761	-0.032959	
-0.394287	-0.0308228	
-0.394897	-0.0291443	
-0.39856	-0.0288391	
-0.398865	-0.0285339	
-0.402527	-0.0286865	
-0.404358	-0.0299072	
-0.405579	-0.0311279	
-0.404968	-0.032196	
-0.40741	-0.0338745	
-0.408936	-0.0363159	
-0.409851	-0.0390625	
-0.409851	-0.0402832	
-0.412292	-0.0422668	
-0.413818	-0.0437927	
-0.414734	-0.0473022	
-0.414429	-0.0505066	
-0.414734	-0.0546265	
-0.417786	-0.0578308	
-0.418701	-0.0614929	
-0.421753	-0.0663757	
-0.423889	-0.070343	
-0.424194	-0.0732422	
-0.424805	-0.0746155	
-0.426941	-0.0743103	
-0.428467	-0.0724792	
-0.431519	-0.0692749	
-0.43335	-0.0662231	
-0.43457	-0.0648499	
-0.436401	-0.0637817	
-0.438843	-0.0630188	
-0.441589	-0.0622559	
-0.443115	-0.0610352	
-0.446777	-0.0590515	
-0.448608	-0.0566101	
-0.448914	-0.0547791	
-0.45166	-0.0538635	
-0.453186	-0.0520325	
-0.456543	-0.0500488	
-0.457458	-0.0463867	
-0.458679	-0.0396729	
-0.461426	-0.0334167	
-0.463867	-0.0274658	
-0.464478	-0.0221252	
-0.466309	-0.0187683	
-0.467834	-0.0160217	
-0.469055	-0.0144958	
-0.46875	-0.0131226	
-0.470581	-0.0112915	
-0.473022	-0.00946045	
-0.473633	-0.00915527	
-0.476074	-0.00976563	
-0.477905	-0.01297	
-0.480652	-0.0157166	
-0.483093	-0.0161743	
-0.483093	-0.0164795	
-0.485229	-0.0154114	
-0.487061	-0.0141907	
-0.490417	-0.0152588	
-0.492554	-0.0172424	
-0.493164	-0.0212097	
-0.493469	-0.0257874	
-0.493469	-0.0288391	
-0.495605	-0.0317383	
-0.497742	-0.0323486	
-0.500488	-0.0328064	
-0.50293	-0.0332642	
-0.50354	-0.0343323	
-0.502319	-0.035553	
-0.505371	-0.0367737	
-0.507202	-0.038147	
-0.508423	-0.0384521	
-0.509949	-0.0384521	
-0.509338	-0.0369263	
-0.510864	-0.0328064	
-0.512085	-0.0282288	
-0.515747	-0.0231934	
-0.516663	-0.0201416	
-0.517883	-0.0190735	
-0.518188	-0.0209045	
-0.520325	-0.025177	
-0.522156	-0.030365	
-0.522156	-0.037384	
-0.523376	-0.0445557	
-0.525818	-0.0520325	
-0.526733	-0.058136	
-0.53009	-0.0619507	
-0.532532	-0.0630188	
-0.532227	-0.0614929	
-0.533447	-0.058136	
-0.532837	-0.0561523	
-0.534973	-0.0549316	
-0.538025	-0.0535583	
-0.539551	-0.0543213	
-0.541687	-0.0570679	
-0.540161	-0.0605774	
-0.540466	-0.0634766	
-0.541382	-0.0650024	
-0.542603	-0.0636292	
-0.541992	-0.0590515	
-0.542603	-0.0518799	
-0.542603	-0.0457764	
-0.542297	-0.040741	
-0.545044	-0.038147	
-0.54718	-0.0360107	
-0.54718	-0.0334167	
-0.547485	-0.0308228	
-0.547485	-0.0294495	
-0.547791	-0.0280762	
-0.547791	-0.0256348	
-0.547485	-0.022583	
-0.546875	-0.019989	
-0.549011	-0.0180054	
-0.552063	-0.0164795	
-0.551758	-0.0172424	
-0.552368	-0.0202942	
-0.552979	-0.0256348	
