Local: ,2025-05-08 00:00:00+02:00,tz_sec ,7200
Linux Epoch (ms):,1746655200000.0
Timestamp,Seq No.,ECG data
1746694876359.469,0,29180
1746694876360.469,0,30085
1746694876361.469,0,30837
1746694876362.469,0,31476
1746694876363.469,0,31977
1746694876364.375,0,32359
1746694876365.375,0,32651
1746694876366.375,0,32852
1746694876367.375,0,32985
1746694876368.375,0,33065
1746694876369.375,0,33101
1746694876370.375,1,33110
1746694876371.375,1,33095
1746694876372.375,1,33070
1746694876373.375,1,33037
1746694876374.375,1,33005
1746694876375.375,1,32966
1746694876376.375,1,32933
1746694876377.375,1,32904
1746694876378.375,1,32874
1746694876379.375,1,32847
1746694876380.281,1,32823
1746694876381.281,2,32801
1746694876382.281,2,32787
1746694876383.281,2,32778
1746694876384.281,2,32765
1746694876385.281,2,32756
1746694876386.281,2,32751
1746694876387.281,2,32735
1746694876388.281,2,32729
1746694876389.281,2,32724
1746694876390.281,2,32719
1746694876391.281,2,32713
1746694876392.281,3,32707
1746694876393.281,3,32702
1746694876394.281,3,32697
1746694876395.281,3,32699
1746694876396.188,3,32693
1746694876397.187,3,32691
1746694876398.1882,3,32690
1746694876399.187,3,32681
1746694876400.188,3,32676
1746694876401.187,3,32670
1746694876402.188,3,32658
1746694876403.188,4,32649
1746694876404.187,4,32645
1746694876405.188,4,32641
1746694876406.187,4,32634
1746694876407.188,4,32633
1746694876408.187,4,32638
1746694876409.188,4,32639
1746694876410.187,4,32637
1746694876411.188,4,32633
1746694876412.062,4,32631
1746694876413.063,4,32625
1746694876414.062,5,32615
1746694876415.062,5,32612
1746694876416.063,5,32606
1746694876417.062,5,32602
1746694876418.063,5,32593
1746694876419.062,5,32585
1746694876420.063,5,32582
1746694876421.062,5,32578
1746694876422.0632,5,32579
1746694876423.062,5,32574
1746694876424.063,5,32573
1746694876425.062,6,32570
1746694876426.063,6,32566
1746694876427.062,6,32567
1746694876427.969,6,32568
1746694876428.969,6,32559
1746694876429.969,6,32556
1746694876430.969,6,32553
1746694876431.969,6,32548
1746694876432.969,6,32546
1746694876433.969,6,32545
1746694876434.969,6,32545
1746694876435.969,7,32545
1746694876436.969,7,32542
1746694876437.969,7,32537
1746694876438.969,7,32537
1746694876439.969,7,32535
1746694876440.969,7,32525
1746694876441.969,7,32518
1746694876442.969,7,32515
1746694876443.844,7,32520
1746694876444.844,7,32516
1746694876445.844,7,32515
1746694876446.844,8,32517
1746694876447.844,8,32512
1746694876448.844,8,32505
1746694876449.844,8,32504
1746694876450.844,8,32498
1746694876451.844,8,32497
1746694876452.844,8,32505
1746694876453.844,8,32508
1746694876454.844,8,32508
1746694876455.844,8,32507
1746694876456.844,8,32497
1746694876457.844,9,32492
1746694876458.844,9,32493
1746694876459.781,9,32485
1746694876460.781,9,32482
1746694876461.781,9,32479
1746694876462.781,9,32469
1746694876463.781,9,32474
1746694876464.781,9,32469
1746694876465.781,9,32467
1746694876466.781,9,32464
1746694876467.781,9,32463
1746694876468.781,10,32460
1746694876469.781,10,32459
1746694876470.781,10,32459
1746694876471.781,10,32478
1746694876472.781,10,32517
1746694876473.781,10,32579
1746694876474.781,10,32664
1746694876475.688,10,32768
1746694876476.687,10,32886
1746694876477.688,10,33013
1746694876478.687,10,33153
1746694876479.688,11,33310
1746694876480.687,11,33467
1746694876481.688,11,33625
1746694876482.687,11,33783
1746694876483.687,11,33945
1746694876484.688,11,34097
1746694876485.687,11,34246
1746694876486.688,11,34400
1746694876487.687,11,34538
1746694876488.688,11,34683
1746694876489.687,11,34829
1746694876490.688,12,34970
1746694876491.562,12,35103
1746694876492.563,12,35231
1746694876493.562,12,35355
1746694876494.562,12,35469
1746694876495.563,12,35589
1746694876496.562,12,35703
1746694876497.563,12,35818
1746694876498.562,12,35929
1746694876499.563,12,36043
1746694876500.562,12,36154
1746694876501.563,13,36256
1746694876502.562,13,36360
1746694876503.563,13,36472
1746694876504.562,13,36563
1746694876505.563,13,36656
1746694876506.562,13,36752
1746694876507.469,13,36848
1746694876508.469,13,36944
1746694876509.469,13,37043
1746694876510.469,13,37134
1746694876511.469,13,37227
1746694876512.469,14,37325
1746694876513.469,14,37420
1746694876514.469,14,37514
1746694876515.469,14,37605
1746694876516.469,14,37685
1746694876517.469,14,37769
1746694876518.469,14,37849
1746694876519.469,14,37935
1746694876520.469,14,38015
1746694876521.4692,14,38092
1746694876522.469,14,38170
1746694876523.344,15,38245
1746694876524.344,15,38327
1746694876525.344,15,38405
1746694876526.344,15,38479
1746694876527.344,15,38553
1746694876528.344,15,38628
1746694876529.344,15,38699
1746694876530.344,15,38765
1746694876531.344,15,38842
1746694876532.344,15,38917
1746694876533.344,15,38993
1746694876534.344,16,39062
1746694876535.344,16,39131
1746694876536.344,16,39201
1746694876537.344,16,39278
1746694876538.344,16,39348
1746694876539.281,16,39428
1746694876540.281,16,39500
1746694876541.281,16,39577
1746694876542.281,16,39651
1746694876543.281,16,39727
1746694876544.281,16,39798
1746694876545.281,17,39860
1746694876546.281,17,39925
1746694876547.281,17,39981
1746694876548.281,17,40041
1746694876549.2808,17,40105
1746694876550.281,17,40156
1746694876551.281,17,40211
1746694876552.281,17,40268
1746694876553.281,17,40325
1746694876554.281,17,40382
1746694876555.188,17,40444
1746694876556.187,18,40503
1746694876557.188,18,40558
1746694876558.187,18,40609
1746694876559.188,18,40660
1746694876560.187,18,40713
1746694876561.188,18,40757
1746694876562.187,18,40807
1746694876563.188,18,40856
1746694876564.188,18,40905
1746694876565.187,18,40957
1746694876566.188,18,41007
1746694876567.187,19,41054
1746694876568.188,19,41101
1746694876569.187,19,41153
1746694876570.188,19,41197
1746694876571.031,19,41243
1746694876572.031,19,41289
1746694876573.031,19,41330
1746694876574.031,19,41371
1746694876575.031,19,41411
1746694876576.031,19,41451
1746694876577.031,19,41490
1746694876578.031,20,41522
1746694876579.031,20,41558
1746694876580.031,20,41610
1746694876581.031,20,41656
1746694876582.031,20,41699
1746694876583.031,20,41735
1746694876584.031,20,41773
1746694876585.031,20,41804
1746694876586.031,20,41833
1746694876586.969,20,41867
1746694876587.969,20,41898
1746694876588.969,21,41933
1746694876589.969,21,41964
1746694876590.969,21,41995
1746694876591.969,21,42026
1746694876592.969,21,42055
1746694876593.969,21,42082
1746694876594.969,21,42112
1746694876595.969,21,42144
1746694876596.969,21,42177
1746694876597.969,21,42209
1746694876598.969,21,42241
1746694876599.969,22,42269
1746694876600.969,22,42298
1746694876601.969,22,42330
1746694876602.844,22,42359
1746694876603.844,22,42384
1746694876604.844,22,42413
1746694876605.844,22,42441
1746694876606.844,22,42471
1746694876607.844,22,42502
1746694876608.844,22,42525
1746694876609.844,22,42559
1746694876610.844,23,42586
1746694876611.844,23,42612
1746694876612.844,23,42634
1746694876613.844,23,42649
1746694876614.844,23,42671
1746694876615.844,23,42689
1746694876616.844,23,42708
1746694876617.844,23,42729
1746694876618.75,23,42751
1746694876619.75,23,42765
1746694876620.75,23,42777
1746694876621.75,24,42793
1746694876622.75,24,42804
1746694876623.75,24,42817
1746694876624.75,24,42829
1746694876625.75,24,42835
1746694876626.75,24,42851
1746694876627.75,24,42861
1746694876628.75,24,42877
1746694876629.75,24,42889
1746694876630.75,24,42899
1746694876631.75,24,42917
1746694876632.75,25,42933
1746694876633.75,25,42949
1746694876634.688,25,42966
1746694876635.687,25,42983
1746694876636.688,25,42994
1746694876637.687,25,43007
1746694876638.688,25,43020
1746694876639.687,25,43033
1746694876640.688,25,43048
1746694876641.687,25,43066
1746694876642.688,25,43080
1746694876643.687,26,43095
1746694876644.687,26,43109
1746694876645.688,26,43124
1746694876646.687,26,43129
1746694876647.688,26,43144
1746694876648.6868,26,43153
1746694876649.688,26,43160
1746694876650.531,26,43161
1746694876651.531,26,43164
1746694876652.531,26,43169
1746694876653.531,26,43174
1746694876654.531,27,43178
1746694876655.531,27,43183
1746694876656.531,27,43179
1746694876657.531,27,43181
1746694876658.531,27,43179
1746694876659.531,27,43179
1746694876660.531,27,43180
1746694876661.531,27,43182
1746694876662.531,27,43184
1746694876663.531,27,43185
1746694876664.531,27,43185
1746694876665.531,28,43188
1746694876666.469,28,43188
1746694876667.469,28,43187
1746694876668.469,28,43189
1746694876669.4692,28,43190
1746694876670.469,28,43193
1746694876671.469,28,43195
1746694876672.469,28,43192
1746694876673.469,28,43190
1746694876674.469,28,43185
1746694876675.469,28,43174
1746694876676.469,29,43167
1746694876677.469,29,43160
1746694876678.469,29,43164
1746694876679.469,29,43162
1746694876680.469,29,43159
1746694876681.469,29,43156
1746694876682.344,29,43156
1746694876683.344,29,43149
1746694876684.344,29,43147
1746694876685.344,29,43140
1746694876686.344,29,43132
1746694876687.344,30,43123
1746694876688.344,30,43116
1746694876689.344,30,43105
1746694876690.344,30,43094
1746694876691.344,30,43088
1746694876692.344,30,43083
1746694876693.3442,30,43076
1746694876694.344,30,43071
1746694876695.344,30,43065
1746694876696.344,30,43063
1746694876697.344,30,43063
1746694876698.25,31,43057
1746694876699.25,31,43052
1746694876700.25,31,43043
1746694876701.25,31,43041
1746694876702.25,31,43035
1746694876703.25,31,43025
1746694876704.25,31,43018
1746694876705.25,31,43004
1746694876706.25,31,42987
1746694876707.25,31,42972
1746694876708.25,31,42953
1746694876709.25,32,42939
1746694876710.25,32,42931
1746694876711.25,32,42919
1746694876712.25,32,42916
1746694876713.25,32,42917
1746694876714.156,32,42913
1746694876715.156,32,42925
1746694876716.156,32,42931
1746694876717.156,32,42929
1746694876718.156,32,42931
1746694876719.156,32,42931
1746694876720.156,33,42919
1746694876721.1558,33,42905
1746694876722.156,33,42889
1746694876723.156,33,42875
1746694876724.156,33,42859
1746694876725.156,33,42849
1746694876726.156,33,42832
1746694876727.156,33,42815
1746694876728.156,33,42796
1746694876729.156,33,42775
1746694876730.062,33,42755
1746694876731.063,34,42731
1746694876732.062,34,42713
1746694876733.063,34,42691
1746694876734.062,34,42675
1746694876735.063,34,42658
1746694876736.063,34,42650
1746694876737.062,34,42643
1746694876738.063,34,42638
1746694876739.062,34,42633
1746694876740.063,34,42624
1746694876741.062,34,42614
1746694876742.063,35,42593
1746694876743.062,35,42579
1746694876744.063,35,42554
1746694876745.062,35,42538
1746694876745.969,35,42523
1746694876746.969,35,42509
1746694876747.969,35,42498
1746694876748.969,35,42485
1746694876749.969,35,42471
1746694876750.969,35,42454
1746694876751.969,35,42447
1746694876752.969,36,42441
1746694876753.969,36,42431
1746694876754.969,36,42417
1746694876755.969,36,42401
1746694876756.969,36,42389
1746694876757.969,36,42376
1746694876758.969,36,42365
1746694876759.969,36,42359
1746694876760.969,36,42359
1746694876761.844,36,42348
1746694876762.844,36,42338
1746694876763.844,37,42324
1746694876764.844,37,42302
1746694876765.844,37,42286
1746694876766.844,37,42259
1746694876767.844,37,42241
1746694876768.844,37,42217
1746694876769.844,37,42194
1746694876770.844,37,42170
1746694876771.844,37,42152
1746694876772.844,37,42138
1746694876773.844,37,42122
1746694876774.844,38,42099
1746694876775.844,38,42082
1746694876776.844,38,42068
1746694876777.781,38,42047
1746694876778.781,38,42028
1746694876779.781,38,42008
1746694876780.781,38,41987
1746694876781.781,38,41973
1746694876782.781,38,41969
1746694876783.781,38,41964
1746694876784.781,38,41959
1746694876785.781,39,41945
1746694876786.781,39,41933
1746694876787.781,39,41919
1746694876788.781,39,41899
1746694876789.781,39,41877
1746694876790.781,39,41854
1746694876791.781,39,41833
1746694876792.781,39,41815
1746694876793.656,39,41796
1746694876794.656,39,41783
1746694876795.656,39,41768
1746694876796.656,40,41755
1746694876797.656,40,41739
1746694876798.656,40,41720
1746694876799.656,40,41710
1746694876800.656,40,41691
1746694876801.656,40,41676
1746694876802.656,40,41656
1746694876803.656,40,41641
1746694876804.656,40,41633
1746694876805.656,40,41617
1746694876806.6558,40,41602
1746694876807.656,41,41581
1746694876808.656,41,41566
1746694876809.562,41,41550
1746694876810.563,41,41534
1746694876811.562,41,41520
1746694876812.563,41,41512
1746694876813.562,41,41504
1746694876814.563,41,41500
1746694876815.562,41,41489
1746694876816.562,41,41476
1746694876817.563,41,41458
1746694876818.562,42,41443
1746694876819.563,42,41426
1746694876820.5618,42,41411
1746694876821.563,42,41389
1746694876822.562,42,41367
1746694876823.563,42,41344
1746694876824.562,42,41328
1746694876825.469,42,41315
1746694876826.469,42,41299
1746694876827.469,42,41283
1746694876828.469,42,41260
1746694876829.469,43,41242
1746694876830.469,43,41226
1746694876831.469,43,41203
1746694876832.469,43,41180
1746694876833.469,43,41157
1746694876834.469,43,41139
1746694876835.469,43,41122
1746694876836.469,43,41106
1746694876837.469,43,41087
1746694876838.469,43,41077
1746694876839.469,43,41061
1746694876840.469,44,41041
1746694876841.375,44,41026
1746694876842.375,44,41010
1746694876843.375,44,40993
1746694876844.375,44,40975
1746694876845.375,44,40951
1746694876846.375,44,40932
1746694876847.375,44,40914
1746694876848.375,44,40895
1746694876849.375,44,40887
1746694876850.375,44,40877
1746694876851.375,45,40873
1746694876852.375,45,40859
1746694876853.375,45,40851
1746694876854.375,45,40841
1746694876855.375,45,40834
1746694876856.375,45,40833
1746694876857.281,45,40822
1746694876858.281,45,40813
1746694876859.281,45,40798
1746694876860.281,45,40787
1746694876861.281,45,40766
1746694876862.281,46,40749
1746694876863.281,46,40726
1746694876864.281,46,40703
1746694876865.281,46,40681
1746694876866.281,46,40655
1746694876867.281,46,40633
1746694876868.281,46,40619
1746694876869.281,46,40599
1746694876870.281,46,40577
1746694876871.281,46,40553
1746694876872.281,46,40535
1746694876873.156,47,40516
1746694876874.156,47,40501
1746694876875.156,47,40492
1746694876876.156,47,40480
1746694876877.156,47,40468
1746694876878.156,47,40457
1746694876879.156,47,40441
1746694876880.156,47,40435
1746694876881.156,47,40434
1746694876882.156,47,40425
1746694876883.156,47,40421
1746694876884.156,48,40410
1746694876885.156,48,40394
1746694876886.156,48,40376
1746694876887.156,48,40362
1746694876888.156,48,40344
1746694876889.062,48,40329
1746694876890.063,48,40315
1746694876891.062,48,40303
1746694876892.063,48,40286
1746694876893.062,48,40271
1746694876894.063,48,40257
1746694876895.062,49,40243
1746694876896.063,49,40227
1746694876897.063,49,40208
1746694876898.062,49,40187
1746694876899.063,49,40170
1746694876900.062,49,40147
1746694876901.063,49,40129
1746694876902.062,49,40119
1746694876903.063,49,40097
1746694876904.062,49,40085
1746694876904.938,49,40070
1746694876905.937,50,40058
1746694876906.938,50,40048
1746694876907.938,50,40034
1746694876908.937,50,40020
1746694876909.938,50,40011
1746694876910.937,50,40003
1746694876911.938,50,39985
1746694876912.937,50,39969
1746694876913.938,50,39953
1746694876914.937,50,39941
1746694876915.938,50,39927
1746694876916.937,51,39913
1746694876917.938,51,39898
1746694876918.937,51,39890
1746694876919.938,51,39883
1746694876920.844,51,39874
1746694876921.844,51,39870
1746694876922.844,51,39861
1746694876923.844,51,39859
1746694876924.844,51,39861
1746694876925.844,51,39861
1746694876926.844,51,39861
1746694876927.844,52,39849
1746694876928.844,52,39839
1746694876929.844,52,39825
1746694876930.844,52,39810
1746694876931.844,52,39795
1746694876932.844,52,39779
1746694876933.844,52,39767
1746694876934.844,52,39758
1746694876935.844,52,39754
1746694876936.75,52,39751
1746694876937.75,52,39746
1746694876938.75,53,39731
1746694876939.75,53,39719
1746694876940.75,53,39707
1746694876941.75,53,39693
1746694876942.75,53,39676
1746694876943.75,53,39663
1746694876944.75,53,39645
1746694876945.75,53,39627
1746694876946.75,53,39619
1746694876947.75,53,39607
1746694876948.75,53,39597
1746694876949.75,54,39595
1746694876950.75,54,39590
1746694876951.75,54,39585
1746694876952.625,54,39576
1746694876953.625,54,39574
1746694876954.625,54,39574
1746694876955.625,54,39580
1746694876956.625,54,39586
1746694876957.625,54,39591
1746694876958.625,54,39585
1746694876959.625,54,39575
1746694876960.625,55,39557
1746694876961.625,55,39540
1746694876962.625,55,39524
1746694876963.625,55,39505
1746694876964.625,55,39485
1746694876965.625,55,39469
1746694876966.625,55,39463
1746694876967.625,55,39457
1746694876968.656,55,39449
1746694876969.656,55,39437
1746694876970.656,55,39425
1746694876971.656,56,39414
1746694876972.656,56,39395
1746694876973.656,56,39380
1746694876974.656,56,39360
1746694876975.656,56,39339
1746694876976.656,56,39326
1746694876977.656,56,39313
1746694876978.656,56,39298
1746694876979.656,56,39279
1746694876980.656,56,39265
1746694876981.656,56,39252
1746694876982.656,57,39239
1746694876983.656,57,39223
1746694876984.438,57,39211
1746694876985.437,57,39200
1746694876986.438,57,39185
1746694876987.437,57,39171
1746694876988.437,57,39161
1746694876989.438,57,39147
1746694876990.437,57,39130
1746694876991.438,57,39110
1746694876992.4368,57,39102
1746694876993.438,58,39099
1746694876994.437,58,39087
1746694876995.438,58,39078
1746694876996.437,58,39065
1746694876997.438,58,39049
1746694876998.437,58,39029
1746694876999.438,58,39011
1746694877000.313,58,38991
1746694877001.312,58,38973
1746694877002.313,58,38957
1746694877003.312,58,38931
1746694877004.313,59,38911
1746694877005.312,59,38893
1746694877006.313,59,38867
1746694877007.312,59,38843
1746694877008.313,59,38821
1746694877009.312,59,38799
1746694877010.313,59,38778
1746694877011.312,59,38764
1746694877012.313,59,38746
1746694877013.312,59,38725
1746694877014.313,59,38712
1746694877015.312,60,38701
1746694877016.25,60,38689
1746694877017.25,60,38675
1746694877018.25,60,38665
1746694877019.25,60,38654
1746694877020.25,60,38640
1746694877021.25,60,38631
1746694877022.25,60,38626
1746694877023.25,60,38621
1746694877024.25,60,38613
1746694877025.25,60,38598
1746694877026.25,61,38587
1746694877027.25,61,38563
1746694877028.25,61,38545
1746694877029.25,61,38523
1746694877030.25,61,38498
1746694877031.25,61,38480
1746694877032.094,61,38462
1746694877033.094,61,38442
1746694877034.094,61,38424
1746694877035.094,61,38407
1746694877036.094,61,38394
1746694877037.0942,62,38381
1746694877038.094,62,38369
1746694877039.094,62,38353
1746694877040.094,62,38346
1746694877041.094,62,38330
1746694877042.094,62,38319
1746694877043.094,62,38300
1746694877044.094,62,38289
1746694877045.094,62,38273
1746694877046.094,62,38258
1746694877047.094,62,38242
1746694877048.031,63,38223
1746694877049.031,63,38209
1746694877050.031,63,38195
1746694877051.031,63,38181
1746694877052.031,63,38175
1746694877053.031,63,38168
1746694877054.031,63,38161
1746694877055.031,63,38149
1746694877056.031,63,38137
1746694877057.031,63,38122
1746694877058.031,63,38103
1746694877059.031,64,38089
1746694877060.031,64,38085
1746694877061.031,64,38078
1746694877062.031,64,38066
1746694877063.031,64,38051
1746694877063.938,64,38041
1746694877064.937,64,38023
1746694877065.938,64,38004
1746694877066.937,64,37983
1746694877067.938,64,37963
1746694877068.938,64,37943
1746694877069.937,65,37920
1746694877070.938,65,37908
1746694877071.937,65,37888
1746694877072.938,65,37877
1746694877073.937,65,37864
1746694877074.938,65,37852
1746694877075.937,65,37846
1746694877076.938,65,37839
1746694877077.9368,65,37829
1746694877078.938,65,37822
1746694877079.813,65,37814
1746694877080.812,66,37814
1746694877081.813,66,37819
1746694877082.812,66,37827
1746694877083.813,66,37839
1746694877084.812,66,37841
1746694877085.813,66,37825
1746694877086.812,66,37815
1746694877087.813,66,37801
1746694877088.812,66,37783
1746694877089.813,66,37767
1746694877090.812,66,37749
1746694877091.813,67,37739
1746694877092.812,67,37727
1746694877093.813,67,37721
1746694877094.812,67,37712
1746694877095.687,67,37711
1746694877096.688,67,37707
1746694877097.687,67,37708
1746694877098.688,67,37697
1746694877099.687,67,37696
1746694877100.688,67,37687
1746694877101.687,67,37684
1746694877102.688,68,37681
1746694877103.687,68,37677
1746694877104.688,68,37667
1746694877105.687,68,37669
1746694877106.688,68,37662
1746694877107.687,68,37659
1746694877108.687,68,37655
1746694877109.688,68,37648
1746694877110.687,68,37649
1746694877111.625,68,37649
1746694877112.625,68,37643
1746694877113.625,69,37647
1746694877114.625,69,37649
1746694877115.625,69,37649
1746694877116.625,69,37650
1746694877117.625,69,37651
1746694877118.625,69,37652
1746694877119.625,69,37657
1746694877120.625,69,37664
1746694877121.625,69,37659
1746694877122.625,69,37655
1746694877123.625,69,37643
1746694877124.625,70,37630
1746694877125.625,70,37628
1746694877126.625,70,37625
1746694877127.5,70,37624
1746694877128.5,70,37616
1746694877129.5,70,37610
1746694877130.5,70,37596
1746694877131.5,70,37582
1746694877132.5,70,37563
1746694877133.5,70,37545
1746694877134.5,70,37533
1746694877135.5,71,37512
1746694877136.5,71,37487
1746694877137.5,71,37464
1746694877138.5,71,37441
1746694877139.5,71,37414
1746694877140.5,71,37384
1746694877141.5,71,37355
1746694877142.5,71,37329
1746694877143.406,71,37302
1746694877144.406,71,37285
1746694877145.406,71,37273
1746694877146.406,72,37264
1746694877147.406,72,37256
1746694877148.406,72,37246
1746694877149.406,72,37243
1746694877150.4058,72,37243
1746694877151.406,72,37231
1746694877152.406,72,37210
1746694877153.406,72,37198
1746694877154.406,72,37185
1746694877155.406,72,37159
1746694877156.406,72,37130
1746694877157.406,73,37091
1746694877158.406,73,37057
1746694877159.281,73,37025
1746694877160.281,73,37000
1746694877161.281,73,36978
1746694877162.281,73,36955
1746694877163.281,73,36942
1746694877164.281,73,36921
1746694877165.281,73,36901
1746694877166.281,73,36884
1746694877167.281,73,36863
1746694877168.281,74,36854
1746694877169.281,74,36840
1746694877170.281,74,36819
1746694877171.281,74,36802
1746694877172.281,74,36793
1746694877173.281,74,36774
1746694877174.2808,74,36766
1746694877175.187,74,36753
1746694877176.188,74,36745
1746694877177.187,74,36741
1746694877178.188,74,36726
1746694877179.187,75,36726
1746694877180.188,75,36723
1746694877181.187,75,36728
1746694877182.188,75,36732
1746694877183.187,75,36727
1746694877184.188,75,36719
1746694877185.187,75,36709
1746694877186.188,75,36700
1746694877187.187,75,36687
1746694877188.188,75,36669
1746694877189.188,75,36658
1746694877190.187,76,36640
1746694877191.063,76,36630
1746694877192.062,76,36618
1746694877193.063,76,36602
1746694877194.062,76,36593
1746694877195.0632,76,36580
1746694877196.062,76,36568
1746694877197.063,76,36562
1746694877198.062,76,36547
1746694877199.063,76,36533
1746694877200.063,76,36521
1746694877201.062,77,36516
1746694877202.063,77,36505
1746694877203.062,77,36497
1746694877204.063,77,36489
1746694877205.062,77,36482
1746694877206.063,77,36474
1746694877207.0,77,36464
1746694877208.0,77,36454
1746694877209.0,77,36444
1746694877210.0,77,36442
1746694877211.0,77,36432
1746694877212.0,78,36427
1746694877213.0,78,36415
1746694877214.0,78,36400
1746694877215.0,78,36375
1746694877216.0,78,36355
1746694877217.0,78,36339
1746694877218.0,78,36327
1746694877219.0,78,36312
1746694877220.0,78,36303
1746694877221.0,78,36298
1746694877222.0,78,36299
1746694877222.875,79,36292
1746694877223.875,79,36292
1746694877224.875,79,36291
1746694877225.875,79,36283
1746694877226.875,79,36275
1746694877227.875,79,36263
1746694877228.875,79,36253
1746694877229.875,79,36240
1746694877230.875,79,36233
1746694877231.875,79,36220
1746694877232.875,79,36212
1746694877233.875,80,36203
1746694877234.875,80,36193
1746694877235.875,80,36193
1746694877236.875,80,36191
1746694877237.875,80,36189
1746694877238.781,80,36192
1746694877239.781,80,36192
1746694877240.781,80,36197
1746694877241.781,80,36201
1746694877242.781,80,36205
1746694877243.781,80,36210
1746694877244.781,81,36219
1746694877245.781,81,36222
1746694877246.781,81,36229
1746694877247.781,81,36245
1746694877248.781,81,36249
1746694877249.781,81,36251
1746694877250.781,81,36255
1746694877251.781,81,36258
1746694877252.781,81,36262
1746694877253.781,81,36272
1746694877254.656,81,36285
1746694877255.656,82,36308
1746694877256.656,82,36338
1746694877257.656,82,36370
1746694877258.656,82,36412
1746694877259.656,82,36463
1746694877260.656,82,36521
1746694877261.656,82,36583
1746694877262.656,82,36662
1746694877263.656,82,36750
1746694877264.656,82,36850
1746694877265.656,82,36955
1746694877266.656,83,37067
1746694877267.656,83,37186
1746694877268.656,83,37309
1746694877269.656,83,37422
1746694877270.594,83,37533
1746694877271.594,83,37637
1746694877272.594,83,37733
1746694877273.594,83,37836
1746694877274.594,83,37933
1746694877275.594,83,38021
1746694877276.594,83,38093
1746694877277.594,84,38140
1746694877278.594,84,38171
1746694877279.594,84,38174
1746694877280.594,84,38145
1746694877281.594,84,38085
1746694877282.594,84,37997
1746694877283.594,84,37900
1746694877284.594,84,37786
1746694877285.594,84,37671
1746694877286.469,84,37558
1746694877287.469,84,37443
1746694877288.469,85,37335
1746694877289.469,85,37227
1746694877290.469,85,37119
1746694877291.469,85,37011
1746694877292.469,85,36911
1746694877293.469,85,36812
1746694877294.4692,85,36704
1746694877295.469,85,36601
1746694877296.469,85,36494
1746694877297.469,85,36382
1746694877298.469,85,36256
1746694877299.469,86,36147
1746694877300.469,86,36016
1746694877301.469,86,35894
1746694877302.375,86,35787
1746694877303.375,86,35695
1746694877304.375,86,35621
1746694877305.375,86,35565
1746694877306.375,86,35529
1746694877307.375,86,35518
1746694877308.375,86,35517
1746694877309.375,86,35523
1746694877310.375,87,35535
1746694877311.375,87,35544
1746694877312.375,87,35552
1746694877313.375,87,35561
1746694877314.375,87,35573
1746694877315.375,87,35583
1746694877316.375,87,35584
1746694877317.375,87,35585
1746694877318.25,87,35585
1746694877319.25,87,35577
1746694877320.25,87,35557
1746694877321.25,88,35538
1746694877322.25,88,35516
1746694877323.25,88,35491
1746694877324.25,88,35468
1746694877325.25,88,35443
1746694877326.25,88,35423
1746694877327.25,88,35405
1746694877328.25,88,35385
1746694877329.25,88,35371
1746694877330.25,88,35352
1746694877331.25,88,35337
1746694877332.25,89,35324
1746694877333.25,89,35313
1746694877334.156,89,35297
1746694877335.156,89,35291
1746694877336.156,89,35284
1746694877337.156,89,35280
1746694877338.156,89,35278
1746694877339.156,89,35271
1746694877340.156,89,35267
1746694877341.156,89,35255
1746694877342.156,89,35244
1746694877343.156,90,35238
1746694877344.156,90,35229
1746694877345.156,90,35229
1746694877346.1558,90,35230
1746694877347.156,90,35225
1746694877348.156,90,35217
1746694877349.156,90,35205
1746694877350.063,90,35196
1746694877351.062,90,35186
1746694877352.063,90,35181
1746694877353.062,90,35172
1746694877354.063,91,35162
1746694877355.062,91,35151
1746694877356.063,91,35144
1746694877357.062,91,35131
1746694877358.063,91,35126
1746694877359.062,91,35121
1746694877360.063,91,35119
1746694877361.063,91,35119
1746694877362.062,91,35117
1746694877363.063,91,35114
1746694877364.062,91,35111
1746694877365.063,92,35103
1746694877366.062,92,35103
1746694877367.063,92,35098
1746694877368.062,92,35094
1746694877369.063,92,35086
1746694877370.062,92,35075
1746694877371.063,92,35068
1746694877372.062,92,35059
1746694877373.063,92,35057
1746694877374.062,92,35055
1746694877375.063,92,35059
1746694877376.062,93,35060
1746694877377.063,93,35056
1746694877378.062,93,35049
1746694877379.062,93,35045
1746694877380.063,93,35038
1746694877381.062,93,35035
1746694877381.844,93,35027
1746694877382.844,93,35022
1746694877383.844,93,35009
1746694877384.844,93,34996
1746694877385.844,93,34981
1746694877386.844,94,34965
1746694877387.844,94,34954
1746694877388.844,94,34938
1746694877389.844,94,34930
1746694877390.844,94,34929
1746694877391.844,94,34936
1746694877392.844,94,34943
1746694877393.844,94,34959
1746694877394.844,94,34966
1746694877395.844,94,34973
1746694877396.844,94,34975
1746694877397.75,95,34976
1746694877398.75,95,34970
1746694877399.75,95,34966
1746694877400.75,95,34956
1746694877401.75,95,34948
1746694877402.75,95,34941
1746694877403.75,95,34936
1746694877404.75,95,34937
1746694877405.75,95,34943
1746694877406.75,95,34943
1746694877407.75,95,34944
1746694877408.75,96,34945
1746694877409.75,96,34942
1746694877410.75,96,34940
1746694877411.75,96,34937
1746694877412.75,96,34931
1746694877413.625,96,34925
1746694877414.625,96,34914
1746694877415.625,96,34903
1746694877416.625,96,34889
1746694877417.625,96,34879
1746694877418.625,96,34871
1746694877419.625,97,34861
1746694877420.625,97,34849
1746694877421.625,97,34842
1746694877422.625,97,34839
1746694877423.625,97,34837
1746694877424.625,97,34839
1746694877425.625,97,34836
1746694877426.625,97,34844
1746694877427.625,97,34843
1746694877428.625,97,34852
1746694877429.531,97,34851
1746694877430.531,98,34852
1746694877431.531,98,34854
1746694877432.531,98,34848
1746694877433.531,98,34843
1746694877434.531,98,34841
1746694877435.531,98,34835
1746694877436.531,98,34828
1746694877437.531,98,34820
1746694877438.531,98,34809
1746694877439.531,98,34801
1746694877440.531,98,34790
1746694877441.531,99,34784
1746694877442.531,99,34790
1746694877443.531,99,34800
1746694877444.531,99,34807
1746694877445.437,99,34808
1746694877446.438,99,34806
1746694877447.437,99,34801
1746694877448.438,99,34795
1746694877449.437,99,34789
1746694877450.438,99,34779
1746694877451.437,99,34769
1746694877452.437,100,34763
1746694877453.438,100,34756
1746694877454.437,100,34748
1746694877455.438,100,34739
1746694877456.437,100,34732
1746694877457.438,100,34728
1746694877458.437,100,34723
1746694877459.438,100,34726
1746694877460.437,100,34727
1746694877461.313,100,34727
1746694877462.312,100,34720
1746694877463.312,101,34723
1746694877464.313,101,34716
1746694877465.312,101,34709
1746694877466.313,101,34707
1746694877467.312,101,34701
1746694877468.313,101,34699
1746694877469.312,101,34697
1746694877470.313,101,34695
1746694877471.312,101,34695
1746694877472.313,101,34694
1746694877473.312,101,34691
1746694877474.313,102,34691
1746694877475.312,102,34691
1746694877476.3132,102,34695
1746694877477.188,102,34706
1746694877478.187,102,34715
1746694877479.188,102,34725
1746694877480.187,102,34737
1746694877481.188,102,34746
1746694877482.187,102,34747
1746694877483.188,102,34743
1746694877484.1868,102,34735
1746694877485.188,103,34731
1746694877486.187,103,34724
1746694877487.188,103,34717
1746694877488.187,103,34707
1746694877489.188,103,34701
1746694877490.187,103,34694
1746694877491.188,103,34692
1746694877492.188,103,34692
1746694877493.094,103,34687
1746694877494.094,103,34681
1746694877495.094,103,34672
1746694877496.094,104,34667
1746694877497.094,104,34662
1746694877498.094,104,34651
1746694877499.094,104,34645
1746694877500.094,104,34633
1746694877501.094,104,34626
1746694877502.094,104,34627
1746694877503.094,104,34623
1746694877504.094,104,34623
1746694877505.094,104,34626
1746694877506.094,104,34633
1746694877507.094,105,34637
1746694877508.094,105,34640
1746694877509.0,105,34648
1746694877510.0,105,34647
1746694877511.0,105,34643
1746694877512.0,105,34641
1746694877513.0,105,34639
1746694877514.0,105,34634
1746694877515.0,105,34627
1746694877516.0,105,34615
1746694877517.0,105,34611
1746694877518.0,106,34610
1746694877519.0,106,34619
1746694877520.0,106,34617
1746694877521.0,106,34608
1746694877522.0,106,34606
1746694877523.0,106,34599
1746694877524.0,106,34591
1746694877524.906,106,34579
1746694877525.906,106,34558
1746694877526.906,106,34539
1746694877527.906,106,34527
1746694877528.906,107,34511
1746694877529.906,107,34494
1746694877530.906,107,34482
1746694877531.906,107,34469
1746694877532.906,107,34459
1746694877533.906,107,34453
1746694877534.906,107,34446
1746694877535.906,107,34442
1746694877536.906,107,34426
1746694877537.906,107,34410
1746694877538.906,107,34398
1746694877539.906,108,34385
1746694877540.813,108,34375
1746694877541.812,108,34363
1746694877542.813,108,34348
1746694877543.813,108,34328
1746694877544.812,108,34307
1746694877545.813,108,34285
1746694877546.812,108,34263
1746694877547.813,108,34247
1746694877548.812,108,34226
1746694877549.813,108,34200
1746694877550.812,109,34173
1746694877551.813,109,34146
1746694877552.812,109,34116
1746694877553.813,109,34092
1746694877554.812,109,34065
1746694877555.813,109,34041
1746694877556.6558,109,34016
1746694877557.656,109,33995
1746694877558.656,109,33976
1746694877559.656,109,33955
1746694877560.656,109,33931
1746694877561.656,110,33913
1746694877562.656,110,33894
1746694877563.656,110,33871
1746694877564.656,110,33859
1746694877565.656,110,33837
1746694877566.656,110,33823
1746694877567.656,110,33805
1746694877568.656,110,33785
1746694877569.656,110,33768
1746694877570.656,110,33753
1746694877571.656,110,33732
1746694877572.594,111,33717
1746694877573.594,111,33698
1746694877574.594,111,33686
1746694877575.594,111,33667
1746694877576.594,111,33653
1746694877577.594,111,33646
1746694877578.594,111,33639
1746694877579.594,111,33628
1746694877580.594,111,33609
1746694877581.594,111,33592
1746694877582.594,111,33570
1746694877583.594,112,33551
1746694877584.594,112,33535
1746694877585.594,112,33517
1746694877586.594,112,33501
1746694877587.594,112,33492
1746694877588.469,112,33483
1746694877589.469,112,33476
1746694877590.469,112,33467
1746694877591.469,112,33459
1746694877592.469,112,33450
1746694877593.469,112,33441
1746694877594.469,113,33426
1746694877595.469,113,33410
1746694877596.469,113,33397
1746694877597.469,113,33380
1746694877598.469,113,33364
1746694877599.469,113,33346
1746694877600.469,113,33340
1746694877601.469,113,33332
1746694877602.469,113,33322
1746694877603.469,113,33315
1746694877604.375,113,33307
1746694877605.375,114,33309
1746694877606.375,114,33309
1746694877607.375,114,33310
1746694877608.375,114,33306
1746694877609.375,114,33307
1746694877610.375,114,33305
1746694877611.375,114,33303
1746694877612.375,114,33292
1746694877613.375,114,33283
1746694877614.375,114,33276
1746694877615.375,114,33263
1746694877616.375,115,33253
1746694877617.375,115,33251
1746694877618.375,115,33247
1746694877619.375,115,33249
1746694877620.281,115,33251
1746694877621.281,115,33254
1746694877622.281,115,33254
1746694877623.281,115,33249
1746694877624.281,115,33250
1746694877625.281,115,33247
1746694877626.281,115,33243
1746694877627.281,116,33237
1746694877628.281,116,33231
1746694877629.281,116,33229
1746694877630.281,116,33234
1746694877631.281,116,33231
1746694877632.281,116,33222
1746694877633.281,116,33217
1746694877634.281,116,33215
1746694877635.281,116,33206
1746694877636.125,116,33201
1746694877637.125,116,33195
1746694877638.125,117,33184
1746694877639.125,117,33177
1746694877640.125,117,33174
1746694877641.125,117,33164
1746694877642.125,117,33157
1746694877643.125,117,33144
1746694877644.125,117,33137
1746694877645.125,117,33130
1746694877646.125,117,33124
1746694877647.125,117,33117
1746694877648.125,117,33114
1746694877649.125,118,33113
1746694877650.125,118,33114
1746694877651.125,118,33115
1746694877652.062,118,33116
1746694877653.063,118,33112
1746694877654.062,118,33111
1746694877655.063,118,33105
1746694877656.0618,118,33101
1746694877657.063,118,33095
1746694877658.062,118,33089
1746694877659.063,118,33084
1746694877660.062,119,33090
1746694877661.063,119,33095
1746694877662.062,119,33097
1746694877663.063,119,33098
1746694877664.062,119,33092
1746694877665.062,119,33087
1746694877666.063,119,33081
1746694877667.062,119,33074
1746694877667.938,119,33070
1746694877668.937,119,33066
1746694877669.938,119,33067
1746694877670.937,120,33067
1746694877671.938,120,33063
1746694877672.937,120,33065
1746694877673.938,120,33066
1746694877674.937,120,33062
1746694877675.937,120,33055
1746694877676.938,120,33048
1746694877677.937,120,33043
1746694877678.938,120,33038
1746694877679.9368,120,33036
1746694877680.938,120,33033
1746694877681.937,121,33037
1746694877682.938,121,33033
1746694877683.844,121,33027
1746694877684.844,121,33020
1746694877685.844,121,33021
1746694877686.844,121,33017
1746694877687.844,121,33015
1746694877688.844,121,33025
1746694877689.844,121,33027
1746694877690.844,121,33041
1746694877691.844,121,33035
1746694877692.844,122,33034
1746694877693.844,122,33023
1746694877694.844,122,33019
1746694877695.844,122,33007
1746694877696.844,122,32995
1746694877697.844,122,32987
1746694877698.844,122,32976
1746694877699.75,122,32967
1746694877700.75,122,32957
1746694877701.75,122,32948
1746694877702.75,122,32934
1746694877703.75,123,32929
1746694877704.75,123,32926
1746694877705.75,123,32928
1746694877706.75,123,32926
1746694877707.75,123,32934
1746694877708.75,123,32933
1746694877709.75,123,32929
1746694877710.75,123,32931
1746694877711.75,123,32931
1746694877712.75,123,32931
1746694877713.75,123,32931
1746694877714.75,124,32924
1746694877715.594,124,32921
1746694877716.594,124,32917
1746694877717.594,124,32912
1746694877718.594,124,32912
1746694877719.594,124,32911
1746694877720.594,124,32917
1746694877721.594,124,32916
1746694877722.594,124,32913
1746694877723.594,124,32894
1746694877724.5942,124,32887
1746694877725.594,125,32877
1746694877726.594,125,32873
1746694877727.594,125,32870
1746694877728.594,125,32864
1746694877729.594,125,32863
1746694877730.594,125,32859
1746694877731.531,125,32862
1746694877732.531,125,32860
1746694877733.531,125,32861
1746694877734.531,125,32858
1746694877735.531,125,32847
1746694877736.531,126,32843
1746694877737.531,126,32835
1746694877738.531,126,32829
1746694877739.531,126,32821
1746694877740.531,126,32811
1746694877741.531,126,32808
1746694877742.531,126,32803
1746694877743.531,126,32806
1746694877744.531,126,32806
1746694877745.531,126,32806
1746694877746.531,126,32812
1746694877747.406,127,32808
1746694877748.406,127,32808
1746694877749.406,127,32812
1746694877750.406,127,32817
1746694877751.406,127,32819
1746694877752.4058,127,32824
1746694877753.406,127,32815
1746694877754.406,127,32807
1746694877755.406,127,32799
1746694877756.406,127,32789
1746694877757.406,127,32779
1746694877758.406,128,32775
1746694877759.406,128,32763
1746694877760.406,128,32755
1746694877761.406,128,32745
1746694877762.406,128,32738
1746694877763.312,128,32731
1746694877764.313,128,32727
1746694877765.312,128,32717
1746694877766.313,128,32719
1746694877767.313,128,32712
1746694877768.312,128,32712
1746694877769.313,129,32704
1746694877770.312,129,32700
1746694877771.313,129,32691
1746694877772.312,129,32684
1746694877773.313,129,32674
1746694877774.312,129,32669
1746694877775.313,129,32665
1746694877776.312,129,32659
1746694877777.313,129,32658
1746694877778.312,129,32657
1746694877779.187,129,32651
1746694877780.188,130,32651
1746694877781.187,130,32644
1746694877782.188,130,32639
1746694877783.187,130,32637
1746694877784.188,130,32628
1746694877785.187,130,32624
1746694877786.188,130,32611
1746694877787.187,130,32608
1746694877788.188,130,32599
1746694877789.187,130,32594
1746694877790.188,130,32589
1746694877791.187,131,32596
1746694877792.188,131,32596
1746694877793.187,131,32599
1746694877794.188,131,32600
1746694877795.063,131,32597
1746694877796.062,131,32597
1746694877797.0632,131,32588
1746694877798.062,131,32579
1746694877799.063,131,32568
1746694877800.062,131,32554
1746694877801.063,131,32547
1746694877802.062,132,32543
1746694877803.063,132,32549
1746694877804.062,132,32548
1746694877805.063,132,32549
1746694877806.062,132,32549
1746694877807.062,132,32543
1746694877808.063,132,32539
1746694877809.062,132,32541
1746694877810.063,132,32548
1746694877810.969,132,32551
1746694877811.969,132,32554
1746694877812.969,133,32547
1746694877813.969,133,32537
1746694877814.969,133,32524
1746694877815.969,133,32510
1746694877816.969,133,32498
1746694877817.969,133,32486
1746694877818.969,133,32476
1746694877819.969,133,32473
1746694877820.969,133,32472
1746694877821.969,133,32475
1746694877822.969,133,32477
1746694877823.969,134,32483
1746694877824.969,134,32478
1746694877825.969,134,32482
1746694877826.875,134,32489
1746694877827.875,134,32484
1746694877828.875,134,32485
1746694877829.875,134,32484
1746694877830.875,134,32481
1746694877831.875,134,32482
1746694877832.875,134,32488
1746694877833.875,134,32487
1746694877834.875,135,32483
1746694877835.875,135,32476
1746694877836.875,135,32465
1746694877837.875,135,32450
1746694877838.875,135,32438
1746694877839.875,135,32435
1746694877840.875,135,32425
1746694877841.875,135,32424
1746694877842.75,135,32415
1746694877843.75,135,32412
1746694877844.75,135,32406
1746694877845.75,136,32401
1746694877846.75,136,32401
1746694877847.75,136,32395
1746694877848.75,136,32390
1746694877849.75,136,32384
1746694877850.75,136,32381
1746694877851.75,136,32372
1746694877852.75,136,32369
1746694877853.75,136,32367
1746694877854.75,136,32360
1746694877855.75,136,32355
1746694877856.75,137,32351
1746694877857.75,137,32348
1746694877858.656,137,32344
1746694877859.656,137,32338
1746694877860.656,137,32334
1746694877861.656,137,32338
1746694877862.656,137,32340
1746694877863.656,137,32351
1746694877864.656,137,32356
1746694877865.656,137,32357
1746694877866.656,137,32354
1746694877867.656,138,32355
1746694877868.656,138,32351
1746694877869.656,138,32345
1746694877870.656,138,32333
1746694877871.656,138,32326
1746694877872.656,138,32315
1746694877873.656,138,32310
1746694877874.5,138,32303
1746694877875.5,138,32288
1746694877876.5,138,32290
1746694877877.5,138,32286
1746694877878.5,139,32280
1746694877879.5,139,32280
1746694877880.5,139,32278
1746694877881.5,139,32276
1746694877882.5,139,32279
1746694877883.5,139,32277
1746694877884.5,139,32279
1746694877885.5,139,32277
1746694877886.5,139,32272
1746694877887.5,139,32266
1746694877888.5,139,32264
1746694877889.5,140,32256
1746694877890.406,140,32255
1746694877891.406,140,32255
1746694877892.406,140,32255
1746694877893.406,140,32250
1746694877894.406,140,32255
1746694877895.406,140,32262
1746694877896.406,140,32266
1746694877897.406,140,32270
1746694877898.406,140,32267
1746694877899.406,140,32273
1746694877900.4058,141,32275
1746694877901.406,141,32277
1746694877902.406,141,32265
1746694877903.406,141,32255
1746694877904.406,141,32246
1746694877905.406,141,32239
1746694877906.313,141,32233
1746694877907.312,141,32228
1746694877908.313,141,32225
1746694877909.312,141,32224
1746694877910.312,141,32220
1746694877911.313,142,32219
1746694877912.312,142,32214
1746694877913.313,142,32208
1746694877914.3118,142,32203
1746694877915.313,142,32199
1746694877916.312,142,32193
1746694877917.313,142,32196
1746694877918.312,142,32188
1746694877919.313,142,32179
1746694877920.312,142,32171
1746694877921.313,142,32167
1746694877922.219,143,32153
1746694877923.219,143,32148
1746694877924.219,143,32142
1746694877925.219,143,32140
1746694877926.219,143,32139
1746694877927.219,143,32136
1746694877928.219,143,32138
1746694877929.219,143,32149
1746694877930.219,143,32163
1746694877931.219,143,32175
1746694877932.219,143,32180
1746694877933.219,144,32187
1746694877934.219,144,32189
1746694877935.219,144,32191
1746694877936.219,144,32193
1746694877937.219,144,32192
1746694877938.094,144,32191
1746694877939.094,144,32179
1746694877940.094,144,32170
1746694877941.094,144,32163
1746694877942.094,144,32149
1746694877943.094,144,32139
1746694877944.094,145,32121
1746694877945.094,145,32108
1746694877946.094,145,32100
1746694877947.094,145,32091
1746694877948.094,145,32083
1746694877949.094,145,32085
1746694877950.094,145,32075
1746694877951.094,145,32073
1746694877952.094,145,32067
1746694877953.094,145,32064
1746694877953.938,145,32068
1746694877954.937,146,32070
1746694877955.938,146,32073
1746694877956.937,146,32078
1746694877957.938,146,32076
1746694877958.937,146,32081
1746694877959.938,146,32085
1746694877960.938,146,32093
1746694877961.937,146,32097
1746694877962.938,146,32090
1746694877963.937,146,32084
1746694877964.938,146,32082
1746694877965.937,147,32078
1746694877966.938,147,32074
1746694877967.937,147,32065
1746694877968.9382,147,32063
1746694877969.844,147,32057
1746694877970.844,147,32056
1746694877971.844,147,32061
1746694877972.844,147,32067
1746694877973.844,147,32067
1746694877974.844,147,32068
1746694877975.844,147,32067
1746694877976.844,148,32063
1746694877977.844,148,32061
1746694877978.844,148,32057
1746694877979.844,148,32053
1746694877980.844,148,32044
1746694877981.844,148,32035
1746694877982.844,148,32024
1746694877983.844,148,32017
1746694877984.844,148,32008
1746694877985.75,148,31995
1746694877986.75,148,31995
1746694877987.75,149,31999
1746694877988.75,149,32004
1746694877989.75,149,32012
1746694877990.75,149,32023
1746694877991.75,149,32029
1746694877992.75,149,32033
1746694877993.75,149,32037
1746694877994.75,149,32041
1746694877995.75,149,32035
1746694877996.75,149,32040
1746694877997.75,149,32045
1746694877998.75,150,32049
1746694877999.75,150,32047
1746694878000.75,150,32041
1746694878001.625,150,32031
1746694878002.625,150,32020
1746694878003.625,150,32012
1746694878004.625,150,32000
1746694878005.625,150,31993
1746694878006.625,150,31983
1746694878007.625,150,31977
1746694878008.625,150,31969
1746694878009.625,151,31964
1746694878010.625,151,31958
1746694878011.625,151,31959
1746694878012.625,151,31952
1746694878013.625,151,31944
1746694878014.625,151,31944
1746694878015.625,151,31943
1746694878016.625,151,31945
1746694878017.531,151,31940
1746694878018.531,151,31935
1746694878019.531,151,31947
1746694878020.531,152,31963
1746694878021.531,152,31966
1746694878022.531,152,31971
1746694878023.531,152,31977
1746694878024.531,152,31972
1746694878025.531,152,31969
1746694878026.531,152,31962
1746694878027.531,152,31960
1746694878028.531,152,31956
1746694878029.531,152,31949
1746694878030.531,152,31942
1746694878031.531,153,31934
1746694878032.531,153,31924
1746694878033.438,153,31921
1746694878034.437,153,31914
1746694878035.438,153,31907
1746694878036.437,153,31908
1746694878037.438,153,31904
1746694878038.437,153,31909
1746694878039.438,153,31904
1746694878040.437,153,31911
1746694878041.437,153,31911
1746694878042.438,154,31913
1746694878043.437,154,31906
1746694878044.438,154,31907
1746694878045.437,154,31904
1746694878046.438,154,31901
1746694878047.437,154,31900
1746694878048.438,154,31907
1746694878049.312,154,31910
1746694878050.313,154,31917
1746694878051.312,154,31913
1746694878052.313,154,31913
1746694878053.313,155,31910
1746694878054.312,155,31906
1746694878055.313,155,31903
1746694878056.312,155,31903
1746694878057.313,155,31908
1746694878058.312,155,31920
1746694878059.313,155,31923
1746694878060.312,155,31923
1746694878061.313,155,31916
1746694878062.3118,155,31911
1746694878063.313,155,31913
1746694878064.312,156,31912
1746694878065.187,156,31911
1746694878066.188,156,31903
1746694878067.187,156,31900
1746694878068.188,156,31897
1746694878069.187,156,31893
1746694878070.188,156,31890
1746694878071.187,156,31891
1746694878072.188,156,31889
1746694878073.187,156,31885
1746694878074.188,156,31882
1746694878075.187,157,31879
1746694878076.188,157,31873
1746694878077.187,157,31869
1746694878078.188,157,31867
1746694878079.187,157,31862
1746694878080.188,157,31864
1746694878081.094,157,31855
1746694878082.094,157,31850
1746694878083.094,157,31850
1746694878084.094,157,31845
1746694878085.094,157,31847
1746694878086.094,158,31847
1746694878087.094,158,31855
1746694878088.094,158,31870
1746694878089.094,158,31872
1746694878090.094,158,31871
1746694878091.094,158,31861
1746694878092.094,158,31855
1746694878093.094,158,31847
1746694878094.094,158,31842
1746694878095.094,158,31838
1746694878096.094,158,31844
1746694878096.969,159,31845
1746694878097.969,159,31855
1746694878098.969,159,31860
1746694878099.969,159,31863
1746694878100.969,159,31868
1746694878101.969,159,31864
1746694878102.969,159,31865
1746694878103.969,159,31862
1746694878104.969,159,31858
1746694878105.969,159,31853
1746694878106.9692,159,31849
1746694878107.969,160,31846
1746694878108.969,160,31844
1746694878109.969,160,31838
1746694878110.969,160,31831
1746694878111.969,160,31835
1746694878112.844,160,31840
1746694878113.844,160,31837
1746694878114.844,160,31837
1746694878115.844,160,31837
1746694878116.844,160,31840
1746694878117.844,160,31851
1746694878118.844,161,31857
1746694878119.844,161,31858
1746694878120.844,161,31855
1746694878121.844,161,31853
1746694878122.844,161,31847
1746694878123.844,161,31843
1746694878124.844,161,31841
1746694878125.844,161,31832
1746694878126.844,161,31827
1746694878127.844,161,31822
1746694878128.75,161,31817
1746694878129.75,162,31816
1746694878130.75,162,31815
1746694878131.75,162,31811
1746694878132.75,162,31810
1746694878133.75,162,31806
1746694878134.75,162,31802
1746694878135.75,162,31800
1746694878136.75,162,31794
1746694878137.75,162,31791
1746694878138.75,162,31799
1746694878139.75,162,31799
1746694878140.75,163,31805
1746694878141.75,163,31803
1746694878142.75,163,31808
1746694878143.75,163,31817
1746694878144.656,163,31819
1746694878145.656,163,31822
1746694878146.656,163,31823
1746694878147.656,163,31818
1746694878148.656,163,31811
1746694878149.656,163,31807
1746694878150.656,163,31802
1746694878151.656,164,31797
1746694878152.656,164,31795
1746694878153.656,164,31793
1746694878154.656,164,31800
1746694878155.656,164,31805
1746694878156.656,164,31811
1746694878157.656,164,31813
1746694878158.6558,164,31813
1746694878159.656,164,31815
1746694878160.531,164,31809
1746694878161.531,164,31809
1746694878162.531,165,31803
1746694878163.531,165,31800
1746694878164.531,165,31795
1746694878165.531,165,31787
1746694878166.531,165,31780
1746694878167.531,165,31771
1746694878168.531,165,31757
1746694878169.531,165,31757
1746694878170.531,165,31751
1746694878171.531,165,31750
1746694878172.531,165,31751
1746694878173.531,166,31751
1746694878174.531,166,31751
1746694878175.531,166,31754
1746694878176.406,166,31752
1746694878177.406,166,31754
1746694878178.406,166,31755
1746694878179.406,166,31761
1746694878180.406,166,31763
1746694878181.406,166,31768
1746694878182.406,166,31769
1746694878183.406,166,31772
1746694878184.406,167,31776
1746694878185.406,167,31791
1746694878186.406,167,31791
1746694878187.406,167,31792
1746694878188.406,167,31793
1746694878189.406,167,31791
1746694878190.406,167,31788
1746694878191.406,167,31785
1746694878192.281,167,31780
1746694878193.281,167,31773
1746694878194.281,167,31769
1746694878195.281,168,31761
1746694878196.281,168,31755
1746694878197.2808,168,31749
1746694878198.281,168,31747
1746694878199.281,168,31751
1746694878200.281,168,31755
1746694878201.281,168,31762
1746694878202.281,168,31772
1746694878203.281,168,31780
1746694878204.281,168,31786
1746694878205.281,168,31795
1746694878206.281,169,31799
1746694878207.281,169,31810
1746694878208.219,169,31820
1746694878209.219,169,31833
1746694878210.219,169,31841
1746694878211.219,169,31850
1746694878212.219,169,31850
1746694878213.219,169,31855
1746694878214.219,169,31856
1746694878215.219,169,31865
1746694878216.219,169,31873
1746694878217.219,170,31874
1746694878218.219,170,31872
1746694878219.219,170,31869
1746694878220.219,170,31861
1746694878221.219,170,31857
1746694878222.219,170,31849
1746694878223.219,170,31852
1746694878224.094,170,31851
1746694878225.094,170,31851
1746694878226.094,170,31849
1746694878227.094,170,31849
1746694878228.094,171,31858
1746694878229.094,171,31860
1746694878230.094,171,31871
1746694878231.094,171,31873
1746694878232.094,171,31877
1746694878233.094,171,31882
1746694878234.094,171,31885
1746694878235.094,171,31890
1746694878236.094,171,31892
1746694878237.094,171,31892
1746694878238.094,171,31898
1746694878239.094,172,31904
1746694878240.0,172,31909
1746694878241.0,172,31916
1746694878242.0,172,31923
1746694878243.0,172,31938
1746694878244.0,172,31946
1746694878245.0,172,31964
1746694878246.0,172,31978
1746694878247.0,172,31983
1746694878248.0,172,31987
1746694878249.0,172,31988
1746694878250.0,173,31988
1746694878251.0,173,31993
1746694878252.0,173,31996
1746694878253.0,173,32003
1746694878254.0,173,32009
1746694878255.0,173,32015
1746694878255.875,173,32021
1746694878256.875,173,32027
1746694878257.875,173,32024
1746694878258.875,173,32019
1746694878259.875,173,32008
1746694878260.875,174,31997
1746694878261.875,174,31979
1746694878262.875,174,31967
1746694878263.875,174,31955
1746694878264.875,174,31946
1746694878265.875,174,31945
1746694878266.875,174,31943
1746694878267.875,174,31937
1746694878268.875,174,31936
1746694878269.875,174,31935
1746694878270.875,174,31926
1746694878271.75,175,31915
1746694878272.75,175,31904
1746694878273.75,175,31895
1746694878274.75,175,31895
1746694878275.75,175,31893
1746694878276.75,175,31887
1746694878277.75,175,31875
1746694878278.75,175,31860
1746694878279.75,175,31842
1746694878280.75,175,31821
1746694878281.75,175,31799
1746694878282.75,176,31777
1746694878283.75,176,31749
1746694878284.75,176,31731
1746694878285.75,176,31719
1746694878286.75,176,31714
1746694878287.656,176,31711
1746694878288.656,176,31711
1746694878289.656,176,31716
1746694878290.656,176,31711
1746694878291.656,176,31708
1746694878292.656,176,31707
1746694878293.656,177,31702
1746694878294.656,177,31692
1746694878295.656,177,31689
1746694878296.656,177,31682
1746694878297.656,177,31677
1746694878298.656,177,31672
1746694878299.656,177,31673
1746694878300.656,177,31670
1746694878301.656,177,31672
1746694878302.656,177,31676
1746694878303.562,177,31676
1746694878304.563,178,31675
1746694878305.562,178,31680
1746694878306.563,178,31672
1746694878307.562,178,31672
1746694878308.563,178,31668
1746694878309.562,178,31664
1746694878310.563,178,31655
1746694878311.562,178,31651
1746694878312.563,178,31641
1746694878313.562,178,31634
1746694878314.563,178,31624
1746694878315.562,179,31627
1746694878316.562,179,31624
1746694878317.563,179,31629
1746694878318.562,179,31629
1746694878319.469,179,31635
1746694878320.469,179,31632
1746694878321.469,179,31631
1746694878322.469,179,31629
1746694878323.469,179,31631
1746694878324.469,179,31627
1746694878325.469,179,31631
1746694878326.469,180,31638
1746694878327.469,180,31649
1746694878328.469,180,31655
1746694878329.469,180,31659
1746694878330.469,180,31654
1746694878331.469,180,31649
1746694878332.469,180,31645
1746694878333.469,180,31643
1746694878334.469,180,31648
1746694878335.344,180,31661
1746694878336.344,180,31659
1746694878337.344,181,31660
1746694878338.344,181,31659
1746694878339.344,181,31656
1746694878340.344,181,31653
1746694878341.3442,181,31654
1746694878342.344,181,31654
1746694878343.344,181,31649
1746694878344.344,181,31648
1746694878345.344,181,31650
1746694878346.344,181,31650
1746694878347.344,181,31647
1746694878348.344,182,31647
1746694878349.344,182,31642
1746694878350.344,182,31639
1746694878351.25,182,31633
1746694878352.25,182,31626
1746694878353.25,182,31618
1746694878354.25,182,31619
1746694878355.25,182,31615
1746694878356.25,182,31613
1746694878357.25,182,31618
1746694878358.25,182,31623
1746694878359.25,183,31629
1746694878360.25,183,31627
1746694878361.25,183,31630
1746694878362.25,183,31639
1746694878363.25,183,31645
1746694878364.25,183,31654
1746694878365.25,183,31675
1746694878366.25,183,31698
1746694878367.125,183,31718
1746694878368.125,183,31736
1746694878369.125,183,31752
1746694878370.125,184,31774
1746694878371.125,184,31796
1746694878372.125,184,31823
1746694878373.125,184,31839
1746694878374.125,184,31857
1746694878375.125,184,31864
1746694878376.125,184,31867
1746694878377.125,184,31866
1746694878378.125,184,31873
1746694878379.125,184,31881
1746694878380.125,184,31896
1746694878381.125,185,31914
1746694878382.125,185,31955
1746694878383.031,185,31985
1746694878384.031,185,32033
1746694878385.031,185,32081
1746694878386.031,185,32142
1746694878387.031,185,32208
1746694878388.031,185,32282
1746694878389.031,185,32366
1746694878390.031,185,32452
1746694878391.031,185,32539
1746694878392.031,186,32631
1746694878393.0308,186,32742
1746694878394.031,186,32847
1746694878395.031,186,32955
1746694878396.031,186,33060
1746694878397.031,186,33163
1746694878398.031,186,33265
1746694878398.938,186,33358
1746694878399.937,186,33455
1746694878400.938,186,33549
1746694878401.937,186,33647
1746694878402.938,187,33727
1746694878403.937,187,33791
1746694878404.938,187,33831
1746694878405.937,187,33844
1746694878406.938,187,33823
1746694878407.938,187,33763
1746694878408.937,187,33676
1746694878409.938,187,33575
1746694878410.937,187,33461
1746694878411.938,187,33345
1746694878412.937,187,33233
1746694878413.938,188,33132
1746694878414.812,188,33025
1746694878415.813,188,32923
1746694878416.812,188,32832
1746694878417.813,188,32745
1746694878418.813,188,32653
1746694878419.812,188,32555
1746694878420.813,188,32471
1746694878421.812,188,32373
1746694878422.813,188,32284
1746694878423.812,188,32193
1746694878424.813,189,32099
1746694878425.812,189,31992
1746694878426.813,189,31874
1746694878427.812,189,31766
1746694878428.813,189,31678
1746694878429.812,189,31606
1746694878430.687,189,31554
1746694878431.688,189,31524
1746694878432.687,189,31519
1746694878433.688,189,31521
1746694878434.687,189,31541
1746694878435.688,190,31559
1746694878436.687,190,31593
1746694878437.6882,190,31618
1746694878438.687,190,31641
1746694878439.688,190,31662
1746694878440.687,190,31674
1746694878441.688,190,31683
1746694878442.687,190,31693
1746694878443.688,190,31695
1746694878444.687,190,31697
1746694878445.688,190,31701
1746694878446.594,191,31704
1746694878447.594,191,31705
1746694878448.594,191,31707
1746694878449.594,191,31704
1746694878450.594,191,31698
1746694878451.594,191,31693
1746694878452.594,191,31678
1746694878453.594,191,31673
1746694878454.594,191,31665
1746694878455.594,191,31663
1746694878456.594,191,31656
1746694878457.594,192,31648
1746694878458.594,192,31637
1746694878459.594,192,31629
1746694878460.594,192,31627
1746694878461.594,192,31623
1746694878462.5,192,31624
1746694878463.5,192,31624
1746694878464.5,192,31618
1746694878465.5,192,31623
1746694878466.5,192,31625
1746694878467.5,192,31621
1746694878468.5,193,31615
1746694878469.5,193,31611
1746694878470.5,193,31605
1746694878471.5,193,31603
1746694878472.5,193,31599
1746694878473.5,193,31597
1746694878474.5,193,31595
1746694878475.5,193,31597
1746694878476.5,193,31607
1746694878477.5,193,31611
1746694878478.406,193,31617
1746694878479.406,194,31623
1746694878480.406,194,31630
1746694878481.406,194,31631
1746694878482.406,194,31630
1746694878483.406,194,31628
1746694878484.406,194,31633
1746694878485.406,194,31637
1746694878486.406,194,31642
1746694878487.406,194,31649
1746694878488.406,194,31649
1746694878489.406,194,31649
1746694878490.406,195,31657
1746694878491.406,195,31663
1746694878492.406,195,31675
1746694878493.406,195,31685
1746694878494.281,195,31688
1746694878495.281,195,31694
1746694878496.281,195,31688
1746694878497.281,195,31685
1746694878498.281,195,31684
1746694878499.281,195,31679
1746694878500.281,195,31675
1746694878501.281,196,31671
1746694878502.281,196,31672
1746694878503.281,196,31677
1746694878504.281,196,31683
1746694878505.281,196,31689
1746694878506.281,196,31697
1746694878507.281,196,31698
1746694878508.281,196,31697
1746694878509.281,196,31699
1746694878510.125,196,31701
1746694878511.125,196,31701
1746694878512.125,197,31700
1746694878513.125,197,31704
1746694878514.125,197,31707
1746694878515.125,197,31707
1746694878516.125,197,31712
1746694878517.125,197,31709
1746694878518.125,197,31704
1746694878519.125,197,31701
1746694878520.125,197,31694
1746694878521.125,197,31695
1746694878522.125,197,31689
1746694878523.125,198,31686
1746694878524.125,198,31686
1746694878525.125,198,31693
1746694878526.094,198,31698
1746694878527.094,198,31699
1746694878528.094,198,31707
1746694878529.094,198,31721
1746694878530.094,198,31738
1746694878531.094,198,31752
1746694878532.094,198,31756
1746694878533.094,198,31760
1746694878534.094,199,31761
1746694878535.094,199,31755
1746694878536.094,199,31755
1746694878537.0942,199,31765
1746694878538.094,199,31783
1746694878539.094,199,31807
1746694878540.094,199,31822
1746694878541.094,199,31835
1746694878541.969,199,31840
1746694878542.969,199,31845
1746694878543.969,199,31848
1746694878544.969,200,31849
1746694878545.969,200,31848
1746694878546.969,200,31847
1746694878547.969,200,31845
1746694878548.969,200,31836
1746694878549.969,200,31835
1746694878550.969,200,31827
1746694878551.969,200,31821
1746694878552.969,200,31815
1746694878553.969,200,31813
1746694878554.969,200,31807
1746694878555.969,201,31807
1746694878556.969,201,31813
1746694878557.875,201,31816
1746694878558.875,201,31831
1746694878559.875,201,31844
1746694878560.875,201,31851
1746694878561.875,201,31856
1746694878562.875,201,31858
1746694878563.875,201,31857
1746694878564.875,201,31861
1746694878565.875,201,31864
1746694878566.875,202,31876
1746694878567.875,202,31887
1746694878568.875,202,31899
1746694878569.875,202,31901
1746694878570.875,202,31906
1746694878571.875,202,31912
1746694878572.875,202,31922
1746694878573.75,202,31930
1746694878574.75,202,31934
1746694878575.75,202,31940
1746694878576.75,202,31945
1746694878577.75,203,31947
1746694878578.75,203,31947
1746694878579.75,203,31945
1746694878580.75,203,31944
1746694878581.75,203,31947
1746694878582.75,203,31947
1746694878583.75,203,31952
1746694878584.75,203,31958
1746694878585.75,203,31961
1746694878586.75,203,31963
1746694878587.75,203,31970
1746694878588.75,204,31974
1746694878589.625,204,31983
1746694878590.625,204,31986
1746694878591.625,204,31987
1746694878592.625,204,31989
1746694878593.625,204,31991
1746694878594.625,204,31989
1746694878595.625,204,31987
1746694878596.625,204,31994
1746694878597.625,204,32010
1746694878598.625,204,32022
1746694878599.625,205,32023
1746694878600.625,205,32028
1746694878601.625,205,32023
1746694878602.625,205,32021
1746694878603.625,205,32022
1746694878604.625,205,32029
1746694878605.531,205,32037
1746694878606.531,205,32043
1746694878607.531,205,32048
1746694878608.531,205,32064
1746694878609.531,205,32068
1746694878610.531,206,32078
1746694878611.531,206,32091
1746694878612.531,206,32095
1746694878613.531,206,32096
1746694878614.531,206,32098
1746694878615.531,206,32099
1746694878616.531,206,32096
1746694878617.531,206,32098
1746694878618.531,206,32097
1746694878619.531,206,32100
1746694878620.531,206,32098
1746694878621.437,207,32103
1746694878622.438,207,32108
1746694878623.437,207,32120
1746694878624.438,207,32134
1746694878625.437,207,32153
1746694878626.438,207,32170
1746694878627.437,207,32194
1746694878628.438,207,32207
1746694878629.437,207,32219
1746694878630.438,207,32219
1746694878631.438,207,32221
1746694878632.437,208,32225
1746694878633.438,208,32220
1746694878634.437,208,32219
1746694878635.438,208,32217
1746694878636.437,208,32219
1746694878637.313,208,32218
1746694878638.312,208,32215
1746694878639.313,208,32211
1746694878640.312,208,32206
1746694878641.313,208,32205
1746694878642.313,208,32206
1746694878643.312,209,32205
1746694878644.313,209,32203
1746694878645.312,209,32206
1746694878646.313,209,32212
1746694878647.312,209,32215
1746694878648.313,209,32217
1746694878649.312,209,32219
1746694878650.313,209,32218
1746694878651.312,209,32215
1746694878652.313,209,32215
1746694878653.188,209,32212
1746694878654.187,210,32210
1746694878655.188,210,32206
1746694878656.187,210,32203
1746694878657.188,210,32192
1746694878658.187,210,32190
1746694878659.188,210,32185
1746694878660.187,210,32181
1746694878661.188,210,32171
1746694878662.187,210,32165
1746694878663.188,210,32156
1746694878664.187,210,32155
1746694878665.188,211,32145
1746694878666.187,211,32138
1746694878667.188,211,32135
1746694878668.187,211,32129
1746694878669.062,211,32119
1746694878670.063,211,32111
1746694878671.062,211,32099
1746694878672.0632,211,32095
1746694878673.062,211,32092
1746694878674.063,211,32080
1746694878675.062,211,32071
1746694878676.063,212,32053
1746694878677.062,212,32029
1746694878678.063,212,32001
1746694878679.062,212,31983
1746694878680.063,212,31971
1746694878681.062,212,31958
1746694878682.062,212,31947
1746694878683.063,212,31929
1746694878684.062,212,31912
1746694878684.969,212,31896
1746694878685.969,212,31878
1746694878686.969,213,31864
1746694878687.969,213,31849
1746694878688.969,213,31838
1746694878689.969,213,31818
1746694878690.969,213,31799
1746694878691.969,213,31782
1746694878692.969,213,31762
1746694878693.969,213,31740
1746694878694.969,213,31719
1746694878695.969,213,31698
1746694878696.969,213,31685
1746694878697.969,214,31667
1746694878698.969,214,31653
1746694878699.969,214,31642
1746694878700.906,214,31626
1746694878701.906,214,31615
1746694878702.906,214,31604
1746694878703.906,214,31595
1746694878704.906,214,31584
1746694878705.906,214,31578
1746694878706.906,214,31567
1746694878707.906,214,31560
1746694878708.906,215,31551
1746694878709.906,215,31550
1746694878710.906,215,31549
1746694878711.906,215,31548
1746694878712.9058,215,31539
1746694878713.906,215,31536
1746694878714.906,215,31530
1746694878715.906,215,31527
1746694878716.75,215,31523
1746694878717.75,215,31528
1746694878718.75,215,31523
1746694878719.75,216,31520
1746694878720.75,216,31517
1746694878721.75,216,31520
1746694878722.75,216,31516
1746694878723.75,216,31520
1746694878724.75,216,31516
1746694878725.75,216,31521
1746694878726.75,216,31522
1746694878727.75,216,31525
1746694878728.75,216,31525
1746694878729.75,216,31524
1746694878730.75,217,31527
1746694878731.75,217,31526
1746694878732.656,217,31521
1746694878733.656,217,31515
1746694878734.656,217,31513
1746694878735.656,217,31509
1746694878736.656,217,31503
1746694878737.656,217,31499
1746694878738.656,217,31500
1746694878739.656,217,31502
1746694878740.656,217,31504
1746694878741.656,218,31500
1746694878742.656,218,31500
1746694878743.656,218,31496
1746694878744.656,218,31503
1746694878745.656,218,31504
1746694878746.656,218,31508
1746694878747.656,218,31513
1746694878748.5,218,31516
1746694878749.5,218,31513
1746694878750.5,218,31516
1746694878751.5,218,31514
1746694878752.5,219,31519
1746694878753.5,219,31519
1746694878754.5,219,31522
1746694878755.5,219,31519
1746694878756.5,219,31518
1746694878757.5,219,31517
1746694878758.5,219,31521
1746694878759.5,219,31521
1746694878760.5,219,31523
1746694878761.5,219,31527
1746694878762.5,219,31535
1746694878763.5,220,31539
1746694878764.438,220,31540
1746694878765.4368,220,31543
1746694878766.438,220,31537
1746694878767.437,220,31538
1746694878768.438,220,31543
1746694878769.437,220,31548
1746694878770.438,220,31559
1746694878771.437,220,31563
1746694878772.438,220,31567
1746694878773.438,220,31568
1746694878774.437,221,31567
1746694878775.438,221,31565
1746694878776.437,221,31563
1746694878777.438,221,31561
1746694878778.437,221,31564
1746694878779.438,221,31564
1746694878780.312,221,31561
1746694878781.313,221,31564
1746694878782.312,221,31564
1746694878783.313,221,31565
1746694878784.312,221,31568
1746694878785.312,222,31569
1746694878786.313,222,31572
1746694878787.312,222,31577
1746694878788.313,222,31579
1746694878789.3118,222,31584
1746694878790.313,222,31589
1746694878791.312,222,31591
1746694878792.313,222,31590
1746694878793.312,222,31588
1746694878794.313,222,31586
1746694878795.312,222,31585
1746694878796.187,223,31578
1746694878797.188,223,31580
1746694878798.187,223,31579
1746694878799.188,223,31584
1746694878800.187,223,31597
1746694878801.188,223,31605
1746694878802.187,223,31612
1746694878803.188,223,31617
1746694878804.187,223,31615
1746694878805.188,223,31614
1746694878806.187,223,31615
1746694878807.188,224,31623
1746694878808.187,224,31631
1746694878809.188,224,31638
1746694878810.187,224,31645
1746694878811.188,224,31646
1746694878812.063,224,31655
1746694878813.062,224,31655
1746694878814.063,224,31655
1746694878815.062,224,31658
1746694878816.063,224,31653
1746694878817.062,224,31650
1746694878818.063,225,31649
1746694878819.062,225,31639
1746694878820.0632,225,31639
1746694878821.062,225,31638
1746694878822.063,225,31637
1746694878823.062,225,31641
1746694878824.063,225,31645
1746694878825.063,225,31652
1746694878826.062,225,31655
1746694878827.063,225,31658
1746694878828.0,225,31659
1746694878829.0,226,31663
1746694878830.0,226,31665
1746694878831.0,226,31668
1746694878832.0,226,31672
1746694878833.0,226,31673
1746694878834.0,226,31674
1746694878835.0,226,31671
1746694878836.0,226,31675
1746694878837.0,226,31685
1746694878838.0,226,31694
1746694878839.0,226,31700
1746694878840.0,227,31704
1746694878841.0,227,31699
1746694878842.0,227,31697
1746694878843.0,227,31697
1746694878843.844,227,31703
1746694878844.844,227,31701
1746694878845.844,227,31698
1746694878846.844,227,31703
1746694878847.844,227,31708
1746694878848.844,227,31716
1746694878849.844,227,31724
1746694878850.844,228,31727
1746694878851.844,228,31734
1746694878852.844,228,31735
1746694878853.844,228,31734
1746694878854.844,228,31731
1746694878855.844,228,31729
1746694878856.844,228,31730
1746694878857.844,228,31736
1746694878858.844,228,31745
1746694878859.844,228,31752
1746694878860.844,228,31761
1746694878861.844,229,31764
1746694878862.844,229,31769
1746694878863.844,229,31771
1746694878864.844,229,31769
1746694878865.844,229,31764
1746694878866.844,229,31766
1746694878867.844,229,31772
1746694878868.844,229,31773
1746694878869.844,229,31773
1746694878870.844,229,31767
1746694878871.844,229,31762
1746694878872.844,230,31760
1746694878873.844,230,31761
1746694878874.844,230,31768
1746694878875.625,230,31777
1746694878876.625,230,31786
1746694878877.625,230,31780
1746694878878.625,230,31783
1746694878879.625,230,31777
1746694878880.625,230,31771
1746694878881.625,230,31765
1746694878882.625,230,31758
1746694878883.625,231,31758
1746694878884.625,231,31760
1746694878885.625,231,31758
1746694878886.625,231,31759
1746694878887.625,231,31753
1746694878888.625,231,31751
1746694878889.625,231,31740
1746694878890.625,231,31738
1746694878891.5,231,31729
1746694878892.5,231,31729
1746694878893.5,231,31729
1746694878894.5,232,31734
1746694878895.5,232,31736
1746694878896.5,232,31745
1746694878897.5,232,31761
1746694878898.5,232,31768
1746694878899.5,232,31779
1746694878900.5,232,31779
1746694878901.5,232,31782
1746694878902.5,232,31778
1746694878903.5,232,31775
1746694878904.5,232,31775
1746694878905.5,233,31769
1746694878906.5,233,31766
1746694878907.375,233,31767
1746694878908.375,233,31758
1746694878909.375,233,31751
1746694878910.375,233,31743
1746694878911.375,233,31739
1746694878912.375,233,31738
1746694878913.375,233,31740
1746694878914.375,233,31739
1746694878915.375,233,31743
1746694878916.375,234,31746
1746694878917.375,234,31750
1746694878918.375,234,31751
1746694878919.375,234,31751
1746694878920.375,234,31751
1746694878921.375,234,31746
1746694878922.375,234,31752
1746694878923.281,234,31755
1746694878924.2808,234,31759
1746694878925.281,234,31757
1746694878926.281,234,31770
1746694878927.281,235,31776
1746694878928.281,235,31791
1746694878929.281,235,31792
1746694878930.281,235,31793
1746694878931.281,235,31789
1746694878932.281,235,31781
1746694878933.281,235,31779
1746694878934.281,235,31776
1746694878935.281,235,31777
1746694878936.281,235,31773
1746694878937.281,235,31765
1746694878938.281,236,31763
1746694878939.188,236,31759
1746694878940.187,236,31763
1746694878941.188,236,31769
1746694878942.187,236,31773
1746694878943.188,236,31778
1746694878944.187,236,31773
1746694878945.188,236,31774
1746694878946.187,236,31775
1746694878947.188,236,31769
1746694878948.187,236,31772
1746694878949.188,237,31778
1746694878950.187,237,31777
1746694878951.188,237,31779
1746694878952.187,237,31771
1746694878953.188,237,31774
1746694878954.187,237,31772
1746694878955.062,237,31769
1746694878956.063,237,31766
1746694878957.062,237,31762
1746694878958.063,237,31763
1746694878959.062,237,31765
1746694878960.063,238,31767
1746694878961.062,238,31770
1746694878962.063,238,31769
1746694878963.062,238,31773
1746694878964.063,238,31781
1746694878965.062,238,31790
1746694878966.063,238,31796
1746694878967.062,238,31801
1746694878968.062,238,31796
1746694878969.063,238,31800
1746694878970.062,238,31798
1746694878970.938,239,31802
1746694878971.937,239,31798
1746694878972.938,239,31795
1746694878973.937,239,31789
1746694878974.938,239,31789
1746694878975.937,239,31785
1746694878976.938,239,31779
1746694878977.937,239,31775
1746694878978.937,239,31772
1746694878979.938,239,31763
1746694878980.937,239,31761
1746694878981.938,240,31759
1746694878982.937,240,31760
1746694878983.938,240,31764
1746694878984.937,240,31765
1746694878985.938,240,31769
1746694878986.812,240,31778
1746694878987.813,240,31779
1746694878988.812,240,31785
1746694878989.813,240,31787
1746694878990.813,240,31786
1746694878991.812,240,31783
1746694878992.813,241,31775
1746694878993.812,241,31776
1746694878994.813,241,31784
1746694878995.812,241,31789
1746694878996.813,241,31797
1746694878997.812,241,31802
1746694878998.813,241,31806
1746694878999.8118,241,31805
1746694879000.813,241,31811
1746694879001.812,241,31816
1746694879002.719,241,31815
1746694879003.719,242,31813
1746694879004.719,242,31811
1746694879005.719,242,31804
1746694879006.719,242,31796
1746694879007.719,242,31785
1746694879008.719,242,31782
1746694879009.719,242,31778
1746694879010.719,242,31779
1746694879011.719,242,31778
1746694879012.719,242,31782
1746694879013.719,242,31786
1746694879014.719,243,31781
1746694879015.719,243,31780
1746694879016.719,243,31776
1746694879017.719,243,31783
1746694879018.625,243,31786
1746694879019.625,243,31782
1746694879020.625,243,31787
1746694879021.625,243,31792
1746694879022.625,243,31799
1746694879023.625,243,31810
1746694879024.625,243,31827
1746694879025.625,244,31834
1746694879026.625,244,31839
1746694879027.625,244,31841
1746694879028.625,244,31832
1746694879029.625,244,31828
1746694879030.625,244,31819
1746694879031.625,244,31810
1746694879032.625,244,31807
1746694879033.625,244,31799
1746694879034.469,244,31797
1746694879035.469,244,31800
1746694879036.469,245,31796
1746694879037.469,245,31804
1746694879038.469,245,31804
1746694879039.469,245,31809
1746694879040.469,245,31813
1746694879041.469,245,31817
1746694879042.469,245,31821
1746694879043.469,245,31823
1746694879044.4692,245,31823
1746694879045.469,245,31825
1746694879046.469,245,31825
1746694879047.469,246,31820
1746694879048.469,246,31819
1746694879049.469,246,31819
1746694879050.375,246,31821
1746694879051.375,246,31821
1746694879052.375,246,31817
1746694879053.375,246,31815
1746694879054.375,246,31816
1746694879055.375,246,31817
1746694879056.375,246,31817
1746694879057.375,246,31811
1746694879058.375,247,31810
1746694879059.375,247,31801
1746694879060.375,247,31796
1746694879061.375,247,31791
1746694879062.375,247,31781
1746694879063.375,247,31781
1746694879064.375,247,31782
1746694879065.375,247,31780
1746694879066.281,247,31781
1746694879067.281,247,31787
1746694879068.281,247,31793
1746694879069.281,248,31802
1746694879070.281,248,31814
1746694879071.281,248,31819
1746694879072.2808,248,31823
1746694879073.281,248,31822
1746694879074.281,248,31821
1746694879075.281,248,31819
1746694879076.281,248,31813
1746694879077.281,248,31805
1746694879078.281,248,31800
1746694879079.281,248,31795
1746694879080.281,249,31795
1746694879081.281,249,31801
1746694879082.187,249,31811
1746694879083.188,249,31818
1746694879084.187,249,31827
1746694879085.188,249,31835
1746694879086.1868,249,31840
1746694879087.188,249,31844
1746694879088.187,249,31848
1746694879089.188,249,31851
1746694879090.187,249,31857
1746694879091.188,250,31855
1746694879092.187,250,31865
1746694879093.188,250,31872
1746694879094.187,250,31879
1746694879095.188,250,31869
1746694879096.187,250,31866
1746694879097.188,250,31855
1746694879098.094,250,31849
1746694879099.094,250,31845
1746694879100.094,250,31847
1746694879101.094,250,31849
1746694879102.094,251,31847
1746694879103.094,251,31847
1746694879104.094,251,31847
1746694879105.094,251,31843
1746694879106.094,251,31842
1746694879107.094,251,31841
1746694879108.094,251,31838
1746694879109.094,251,31837
1746694879110.094,251,31833
1746694879111.094,251,31829
1746694879112.094,251,31827
1746694879113.094,252,31825
1746694879113.969,252,31828
1746694879114.969,252,31829
1746694879115.969,252,31824
1746694879116.969,252,31827
1746694879117.969,252,31831
1746694879118.969,252,31831
1746694879119.969,252,31835
1746694879120.969,252,31834
1746694879121.969,252,31849
1746694879122.969,252,31861
1746694879123.969,253,31872
1746694879124.969,253,31874
1746694879125.969,253,31881
1746694879126.969,253,31886
1746694879127.969,253,31885
1746694879128.969,253,31891
1746694879129.844,253,31885
1746694879130.8442,253,31881
1746694879131.844,253,31877
1746694879132.844,253,31869
1746694879133.844,253,31864
1746694879134.844,254,31858
1746694879135.844,254,31857
1746694879136.844,254,31856
1746694879137.844,254,31855
1746694879138.844,254,31853
1746694879139.844,254,31849
1746694879140.844,254,31844
1746694879141.844,254,31844
1746694879142.844,254,31842
1746694879143.844,254,31843
1746694879144.844,254,31845
1746694879145.719,255,31846
1746694879146.719,255,31846
1746694879147.719,255,31850
1746694879148.719,255,31852
1746694879149.719,255,31853
1746694879150.719,255,31854
1746694879151.719,255,31861
1746694879152.719,255,31868
1746694879153.719,255,31869
1746694879154.719,255,31877
1746694879155.719,255,31872
1746694879156.719,256,31873
1746694879157.719,256,31870
1746694879158.719,256,31871
1746694879159.719,256,31866
1746694879160.719,256,31866
1746694879161.625,256,31868
1746694879162.625,256,31863
1746694879163.625,256,31860
1746694879164.625,256,31857
1746694879165.625,256,31846
1746694879166.625,256,31839
1746694879167.625,257,31837
1746694879168.625,257,31837
1746694879169.625,257,31838
1746694879170.625,257,31839
1746694879171.625,257,31843
1746694879172.625,257,31853
1746694879173.625,257,31860
1746694879174.625,257,31864
1746694879175.625,257,31868
1746694879176.625,257,31877
1746694879177.5,257,31877
1746694879178.5,258,31883
1746694879179.5,258,31883
1746694879180.5,258,31885
1746694879181.5,258,31891
1746694879182.5,258,31892
1746694879183.5,258,31897
1746694879184.5,258,31890
1746694879185.5,258,31892
1746694879186.5,258,31887
1746694879187.5,258,31887
1746694879188.5,258,31881
1746694879189.5,259,31877
1746694879190.5,259,31877
1746694879191.5,259,31875
1746694879192.5,259,31877
1746694879193.375,259,31875
1746694879194.375,259,31870
1746694879195.375,259,31868
1746694879196.375,259,31865
1746694879197.375,259,31873
1746694879198.375,259,31875
1746694879199.375,259,31869
1746694879200.375,260,31870
1746694879201.375,260,31868
1746694879202.375,260,31871
1746694879203.375,260,31877
1746694879204.375,260,31880
1746694879205.375,260,31879
1746694879206.375,260,31879
1746694879207.375,260,31870
1746694879208.375,260,31863
1746694879209.25,260,31855
1746694879210.25,260,31851
1746694879211.25,261,31848
1746694879212.25,261,31849
1746694879213.25,261,31853
1746694879214.25,261,31853
1746694879215.25,261,31861
1746694879216.25,261,31860
1746694879217.25,261,31868
1746694879218.25,261,31871
1746694879219.25,261,31877
1746694879220.25,261,31879
1746694879221.25,261,31884
1746694879222.25,262,31887
1746694879223.25,262,31889
1746694879224.25,262,31894
1746694879225.156,262,31896
1746694879226.156,262,31890
1746694879227.156,262,31891
1746694879228.156,262,31889
1746694879229.156,262,31885
1746694879230.156,262,31879
1746694879231.156,262,31873
1746694879232.156,262,31867
1746694879233.156,263,31865
1746694879234.156,263,31869
1746694879235.156,263,31873
1746694879236.156,263,31877
1746694879237.156,263,31879
1746694879238.156,263,31875
1746694879239.156,263,31876
1746694879240.156,263,31874
1746694879241.094,263,31879
1746694879242.094,263,31888
1746694879243.094,263,31900
1746694879244.094,264,31916
1746694879245.094,264,31916
1746694879246.094,264,31915
1746694879247.094,264,31912
1746694879248.094,264,31903
1746694879249.094,264,31905
1746694879250.094,264,31909
1746694879251.094,264,31921
1746694879252.094,264,31924
1746694879253.094,264,31923
1746694879254.094,264,31929
1746694879255.094,265,31928
1746694879256.094,265,31929
1746694879257.0,265,31928
1746694879258.0,265,31924
1746694879259.0,265,31919
1746694879260.0,265,31912
1746694879261.0,265,31910
1746694879262.0,265,31904
1746694879263.0,265,31911
1746694879264.0,265,31917
1746694879265.0,265,31926
1746694879266.0,266,31934
1746694879267.0,266,31939
1746694879268.0,266,31936
1746694879269.0,266,31932
1746694879270.0,266,31927
1746694879271.0,266,31919
1746694879272.0,266,31914
1746694879272.844,266,31913
1746694879273.844,266,31910
1746694879274.844,266,31913
1746694879275.844,266,31910
1746694879276.844,267,31907
1746694879277.844,267,31904
1746694879278.8442,267,31902
1746694879279.844,267,31900
1746694879280.844,267,31902
1746694879281.844,267,31898
1746694879282.844,267,31890
1746694879283.844,267,31883
1746694879284.844,267,31885
1746694879285.844,267,31885
1746694879286.844,267,31889
1746694879287.844,268,31889
1746694879288.75,268,31885
1746694879289.75,268,31884
1746694879290.75,268,31888
1746694879291.75,268,31889
1746694879292.75,268,31897
1746694879293.75,268,31903
1746694879294.75,268,31920
1746694879295.75,268,31934
1746694879296.75,268,31941
1746694879297.75,268,31941
1746694879298.75,269,31944
1746694879299.75,269,31943
1746694879300.75,269,31940
1746694879301.75,269,31939
1746694879302.75,269,31929
1746694879303.75,269,31928
1746694879304.625,269,31927
1746694879305.625,269,31915
1746694879306.625,269,31908
1746694879307.625,269,31906
1746694879308.625,269,31898
1746694879309.625,270,31898
1746694879310.625,270,31898
1746694879311.625,270,31895
1746694879312.625,270,31899
1746694879313.625,270,31899
1746694879314.625,270,31904
1746694879315.625,270,31903
1746694879316.625,270,31907
1746694879317.625,270,31906
1746694879318.625,270,31909
1746694879319.625,270,31908
1746694879320.5618,271,31911
1746694879321.563,271,31912
1746694879322.562,271,31909
1746694879323.563,271,31913
1746694879324.562,271,31911
1746694879325.563,271,31918
1746694879326.562,271,31923
1746694879327.563,271,31925
1746694879328.562,271,31925
1746694879329.563,271,31924
1746694879330.562,271,31928
1746694879331.563,272,31933
1746694879332.562,272,31938
1746694879333.563,272,31943
1746694879334.563,272,31947
1746694879335.562,272,31937
1746694879336.438,272,31930
1746694879337.437,272,31922
1746694879338.438,272,31915
1746694879339.437,272,31905
1746694879340.438,272,31907
1746694879341.437,272,31906
1746694879342.438,273,31905
1746694879343.437,273,31905
1746694879344.438,273,31905
1746694879345.438,273,31901
1746694879346.437,273,31899
1746694879347.438,273,31898
1746694879348.437,273,31897
1746694879349.438,273,31899
1746694879350.437,273,31894
1746694879351.438,273,31901
1746694879352.312,273,31907
1746694879353.313,274,31917
1746694879354.312,274,31925
1746694879355.313,274,31928
1746694879356.313,274,31934
1746694879357.312,274,31931
1746694879358.313,274,31931
1746694879359.312,274,31929
1746694879360.313,274,31930
1746694879361.312,274,31935
1746694879362.313,274,31941
1746694879363.312,274,31946
1746694879364.313,275,31946
1746694879365.312,275,31940
1746694879366.313,275,31933
1746694879367.312,275,31937
1746694879368.219,275,31934
1746694879369.219,275,31933
1746694879370.219,275,31934
1746694879371.219,275,31939
1746694879372.219,275,31945
1746694879373.219,275,31952
1746694879374.219,275,31961
1746694879375.219,276,31964
1746694879376.219,276,31971
1746694879377.219,276,31985
1746694879378.219,276,31991
1746694879379.219,276,32002
1746694879380.219,276,32004
1746694879381.219,276,32007
1746694879382.219,276,32011
1746694879383.219,276,32009
1746694879384.094,276,32005
1746694879385.094,276,32002
1746694879386.094,277,32004
1746694879387.094,277,32001
1746694879388.094,277,32003
1746694879389.094,277,32001
1746694879390.094,277,32003
1746694879391.094,277,31999
1746694879392.094,277,31996
1746694879393.094,277,31987
1746694879394.094,277,31983
1746694879395.094,277,31977
1746694879396.094,277,31972
1746694879397.094,278,31974
1746694879398.094,278,31980
1746694879399.094,278,31993
1746694879400.031,278,32008
1746694879401.031,278,32025
1746694879402.031,278,32040
1746694879403.031,278,32056
1746694879404.031,278,32065
1746694879405.031,278,32071
1746694879406.031,278,32079
1746694879407.031,278,32093
1746694879408.031,279,32105
1746694879409.031,279,32127
1746694879410.031,279,32137
1746694879411.031,279,32144
1746694879412.031,279,32142
1746694879413.031,279,32151
1746694879414.031,279,32162
1746694879415.031,279,32175
1746694879415.906,279,32187
1746694879416.906,279,32195
1746694879417.906,279,32206
1746694879418.906,280,32205
1746694879419.906,280,32203
1746694879420.906,280,32203
1746694879421.906,280,32199
1746694879422.906,280,32195
1746694879423.906,280,32194
1746694879424.906,280,32197
1746694879425.906,280,32205
1746694879426.906,280,32208
1746694879427.906,280,32208
1746694879428.906,280,32213
1746694879429.906,281,32208
1746694879430.906,281,32209
1746694879431.781,281,32196
1746694879432.781,281,32190
1746694879433.781,281,32182
1746694879434.781,281,32170
1746694879435.781,281,32157
1746694879436.781,281,32151
1746694879437.781,281,32146
1746694879438.781,281,32146
1746694879439.781,281,32143
1746694879440.781,282,32138
1746694879441.781,282,32133
1746694879442.781,282,32123
1746694879443.781,282,32116
1746694879444.781,282,32104
1746694879445.781,282,32097
1746694879446.781,282,32092
1746694879447.687,282,32088
1746694879448.688,282,32079
1746694879449.687,282,32069
1746694879450.688,282,32063
1746694879451.687,283,32051
1746694879452.688,283,32038
1746694879453.687,283,32020
1746694879454.688,283,32001
1746694879455.687,283,31985
1746694879456.688,283,31962
1746694879457.687,283,31946
1746694879458.688,283,31933
1746694879459.687,283,31920
1746694879460.6882,283,31912
1746694879461.687,283,31899
1746694879462.688,284,31890
1746694879463.563,284,31881
1746694879464.562,284,31881
1746694879465.563,284,31875
1746694879466.562,284,31881
1746694879467.563,284,31895
1746694879468.5618,284,31901
1746694879469.563,284,31905
1746694879470.562,284,31899
1746694879471.563,284,31894
1746694879472.562,284,31893
1746694879473.563,285,31896
1746694879474.562,285,31895
1746694879475.563,285,31894
1746694879476.562,285,31892
1746694879477.562,285,31887
1746694879478.563,285,31889
1746694879479.469,285,31884
1746694879480.469,285,31874
1746694879481.469,285,31862
1746694879482.469,285,31855
1746694879483.469,285,31844
1746694879484.469,286,31840
1746694879485.469,286,31838
1746694879486.469,286,31835
1746694879487.469,286,31833
1746694879488.469,286,31838
1746694879489.469,286,31838
1746694879490.469,286,31840
1746694879491.469,286,31847
1746694879492.469,286,31851
1746694879493.469,286,31857
1746694879494.469,286,31865
1746694879495.406,287,31867
1746694879496.406,287,31865
1746694879497.406,287,31864
1746694879498.406,287,31863
1746694879499.406,287,31859
1746694879500.406,287,31854
1746694879501.406,287,31843
1746694879502.4058,287,31837
1746694879503.406,287,31832
1746694879504.406,287,31838
1746694879505.406,287,31851
1746694879506.406,288,31864
1746694879507.406,288,31873
1746694879508.406,288,31874
1746694879509.406,288,31876
1746694879510.406,288,31880
1746694879511.219,288,31885
1746694879512.219,288,31881
1746694879513.2192,288,31879
1746694879514.219,288,31880
1746694879515.219,288,31875
1746694879516.219,288,31877
1746694879517.219,289,31871
1746694879518.219,289,31872
1746694879519.219,289,31867
1746694879520.219,289,31867
1746694879521.219,289,31865
1746694879522.219,289,31865
1746694879523.219,289,31860
1746694879524.219,289,31857
1746694879525.219,289,31851
1746694879526.219,289,31853
1746694879527.125,289,31849
1746694879528.125,290,31841
1746694879529.125,290,31837
1746694879530.125,290,31834
1746694879531.125,290,31831
1746694879532.125,290,31830
1746694879533.125,290,31837
1746694879534.125,290,31851
1746694879535.125,290,31874
1746694879536.125,290,31897
1746694879537.125,290,31923
1746694879538.125,290,31945
1746694879539.125,291,31972
1746694879540.125,291,31999
1746694879541.125,291,32027
1746694879542.125,291,32043
1746694879542.969,291,32059
1746694879543.969,291,32072
1746694879544.969,291,32080
1746694879545.969,291,32090
1746694879546.969,291,32099
1746694879547.969,291,32114
1746694879548.969,291,32125
1746694879549.969,292,32146
1746694879550.969,292,32166
1746694879551.969,292,32195
1746694879552.969,292,32229
1746694879553.969,292,32268
1746694879554.969,292,32308
1746694879555.969,292,32365
1746694879556.969,292,32428
1746694879557.969,292,32503
1746694879558.906,292,32581
1746694879559.906,292,32677
1746694879560.906,293,32786
1746694879561.906,293,32905
1746694879562.906,293,33031
1746694879563.906,293,33157
1746694879564.9058,293,33287
1746694879565.906,293,33421
1746694879566.906,293,33545
1746694879567.906,293,33660
1746694879568.906,293,33773
1746694879569.906,293,33884
1746694879570.906,293,33983
1746694879571.906,294,34061
1746694879572.906,294,34120
1746694879573.906,294,34162
1746694879574.781,294,34178
1746694879575.781,294,34172
1746694879576.781,294,34138
1746694879577.781,294,34068
1746694879578.781,294,33980
1746694879579.781,294,33881
1746694879580.781,294,33777
1746694879581.781,294,33669
1746694879582.781,295,33569
1746694879583.781,295,33476
1746694879584.781,295,33393
1746694879585.781,295,33313
1746694879586.781,295,33230
1746694879587.781,295,33146
1746694879588.781,295,33064
1746694879589.781,295,32977
1746694879590.656,295,32889
1746694879591.656,295,32796
1746694879592.656,295,32689
1746694879593.656,296,32571
1746694879594.656,296,32447
1746694879595.656,296,32316
1746694879596.656,296,32189
1746694879597.656,296,32067
1746694879598.656,296,31965
1746694879599.656,296,31879
1746694879600.656,296,31816
1746694879601.656,296,31777
1746694879602.656,296,31758
1746694879603.656,296,31751
1746694879604.656,297,31761
1746694879605.656,297,31777
1746694879606.531,297,31795
1746694879607.531,297,31817
1746694879608.531,297,31836
1746694879609.531,297,31853
1746694879610.531,297,31864
1746694879611.531,297,31879
1746694879612.531,297,31884
1746694879613.531,297,31889
1746694879614.531,297,31890
1746694879615.531,298,31880
1746694879616.531,298,31875
1746694879617.531,298,31861
1746694879618.531,298,31854
1746694879619.531,298,31842
1746694879620.531,298,31841
1746694879621.531,298,31829
1746694879622.438,298,31819
1746694879623.437,298,31814
1746694879624.438,298,31804
1746694879625.437,298,31801
1746694879626.438,299,31795
1746694879627.437,299,31792
1746694879628.438,299,31787
1746694879629.437,299,31783
1746694879630.438,299,31779
1746694879631.438,299,31776
1746694879632.437,299,31777
1746694879633.438,299,31781
1746694879634.437,299,31788
1746694879635.438,299,31785
1746694879636.437,299,31786
1746694879637.438,300,31784
1746694879638.344,300,31781
1746694879639.344,300,31777
1746694879640.344,300,31776
1746694879641.344,300,31774
1746694879642.344,300,31775
1746694879643.344,300,31775
1746694879644.344,300,31771
1746694879645.344,300,31773
1746694879646.344,300,31773
1746694879647.344,300,31773
1746694879648.344,301,31773
1746694879649.344,301,31776
1746694879650.344,301,31777
1746694879651.344,301,31778
1746694879652.344,301,31777
1746694879653.344,301,31778
1746694879654.25,301,31784
1746694879655.25,301,31786
1746694879656.25,301,31793
1746694879657.25,301,31797
1746694879658.25,301,31798
1746694879659.25,302,31800
1746694879660.25,302,31799
1746694879661.25,302,31803
1746694879662.25,302,31811
1746694879663.25,302,31820
1746694879664.25,302,31822
1746694879665.25,302,31826
1746694879666.25,302,31824
1746694879667.25,302,31822
1746694879668.25,302,31819
1746694879669.25,302,31813
1746694879670.094,303,31807
1746694879671.094,303,31801
1746694879672.094,303,31799
1746694879673.094,303,31795
1746694879674.094,303,31788
1746694879675.094,303,31787
1746694879676.094,303,31781
1746694879677.094,303,31783
1746694879678.094,303,31787
1746694879679.094,303,31795
1746694879680.094,303,31802
1746694879681.094,304,31815
1746694879682.094,304,31816
1746694879683.094,304,31825
1746694879684.094,304,31833
1746694879685.0942,304,31843
1746694879686.0,304,31849
1746694879687.0,304,31857
1746694879688.0,304,31859
1746694879689.0,304,31859
1746694879690.0,304,31855
1746694879691.0,304,31855
1746694879692.0,305,31865
1746694879693.0,305,31867
1746694879694.0,305,31866
1746694879695.0,305,31860
1746694879696.0,305,31863
1746694879697.0,305,31865
1746694879698.0,305,31868
1746694879699.0,305,31871
1746694879700.0,305,31877
1746694879701.0,305,31879
1746694879701.875,305,31882
1746694879702.875,306,31885
1746694879703.875,306,31885
1746694879704.875,306,31883
1746694879705.875,306,31877
1746694879706.875,306,31869
1746694879707.875,306,31861
1746694879708.875,306,31857
1746694879709.875,306,31856
1746694879710.875,306,31856
1746694879711.875,306,31865
1746694879712.875,306,31869
1746694879713.875,307,31877
1746694879714.875,307,31883
1746694879715.875,307,31891
1746694879716.875,307,31898
1746694879717.812,307,31900
1746694879718.813,307,31904
1746694879719.812,307,31907
1746694879720.813,307,31911
1746694879721.812,307,31917
1746694879722.812,307,31929
1746694879723.813,307,31934
1746694879724.812,308,31930
1746694879725.813,308,31932
1746694879726.8118,308,31923
1746694879727.813,308,31921
1746694879728.812,308,31919
1746694879729.813,308,31918
1746694879730.812,308,31920
1746694879731.813,308,31921
1746694879732.812,308,31923
1746694879733.687,308,31923
1746694879734.688,308,31929
1746694879735.687,309,31932
1746694879736.688,309,31945
1746694879737.687,309,31960
1746694879738.688,309,31967
1746694879739.687,309,31979
1746694879740.688,309,31987
1746694879741.687,309,31988
1746694879742.688,309,31996
1746694879743.687,309,32004
1746694879744.688,309,32005
1746694879745.687,309,32008
1746694879746.688,310,32008
1746694879747.687,310,32011
1746694879748.688,310,32016
1746694879749.594,310,32014
1746694879750.594,310,32011
1746694879751.594,310,32019
1746694879752.594,310,32026
1746694879753.594,310,32027
1746694879754.594,310,32028
1746694879755.594,310,32029
1746694879756.594,310,32029
1746694879757.594,311,32024
1746694879758.594,311,32023
1746694879759.594,311,32012
1746694879760.594,311,32008
1746694879761.594,311,32002
1746694879762.594,311,32003
1746694879763.594,311,32003
1746694879764.594,311,32008
1746694879765.5,311,32015
1746694879766.5,311,32025
1746694879767.5,311,32038
1746694879768.5,312,32049
1746694879769.5,312,32063
1746694879770.5,312,32074
1746694879771.5,312,32081
1746694879772.5,312,32086
1746694879773.5,312,32093
1746694879774.5,312,32105
1746694879775.5,312,32112
1746694879776.5,312,32125
1746694879777.5,312,32132
1746694879778.5,312,32135
1746694879779.5,313,32135
1746694879780.5,313,32129
1746694879781.375,313,32128
1746694879782.375,313,32123
1746694879783.375,313,32116
1746694879784.375,313,32113
1746694879785.375,313,32114
1746694879786.375,313,32117
1746694879787.375,313,32120
1746694879788.375,313,32127
1746694879789.375,313,32135
1746694879790.375,314,32151
1746694879791.375,314,32167
1746694879792.375,314,32171
1746694879793.375,314,32179
1746694879794.375,314,32179
1746694879795.375,314,32184
1746694879796.375,314,32185
1746694879797.281,314,32186
1746694879798.281,314,32187
1746694879799.2808,314,32173
1746694879800.281,314,32170
1746694879801.281,315,32166
1746694879802.281,315,32169
1746694879803.281,315,32168
1746694879804.281,315,32173
1746694879805.281,315,32182
1746694879806.281,315,32189
1746694879807.281,315,32193
1746694879808.281,315,32196
1746694879809.281,315,32192
1746694879810.281,315,32191
1746694879811.281,315,32187
1746694879812.281,316,32186
1746694879813.188,316,32180
1746694879814.188,316,32175
1746694879815.187,316,32168
1746694879816.188,316,32159
1746694879817.187,316,32149
1746694879818.188,316,32151
1746694879819.187,316,32155
1746694879820.188,316,32159
1746694879821.187,316,32165
1746694879822.188,316,32159
1746694879823.187,317,32150
1746694879824.188,317,32144
1746694879825.187,317,32137
1746694879826.188,317,32129
1746694879827.187,317,32137
1746694879828.188,317,32139
1746694879829.063,317,32129
1746694879830.062,317,32120
1746694879831.063,317,32109
1746694879832.062,317,32089
1746694879833.063,317,32076
1746694879834.062,318,32068
1746694879835.063,318,32062
1746694879836.062,318,32058
1746694879837.063,318,32055
1746694879838.062,318,32045
1746694879839.063,318,32033
1746694879840.062,318,32020
1746694879841.063,318,32003
1746694879842.062,318,31992
1746694879843.062,318,31979
1746694879844.063,318,31967
1746694879844.969,319,31949
1746694879845.969,319,31929
1746694879846.969,319,31909
1746694879847.969,319,31897
1746694879848.969,319,31884
1746694879849.969,319,31875
1746694879850.969,319,31856
1746694879851.969,319,31839
1746694879852.969,319,31820
1746694879853.969,319,31792
1746694879854.969,319,31762
1746694879855.969,320,31736
1746694879856.9692,320,31712
1746694879857.969,320,31690
1746694879858.969,320,31667
1746694879859.969,320,31647
1746694879860.844,320,31628
1746694879861.844,320,31608
1746694879862.844,320,31592
1746694879863.844,320,31579
1746694879864.844,320,31561
1746694879865.844,320,31543
1746694879866.844,321,31525
1746694879867.844,321,31501
1746694879868.844,321,31481
1746694879869.844,321,31468
1746694879870.844,321,31462
1746694879871.844,321,31452
1746694879872.844,321,31443
1746694879873.844,321,31436
1746694879874.844,321,31427
1746694879875.844,321,31422
1746694879876.75,321,31413
1746694879877.75,322,31406
1746694879878.75,322,31401
1746694879879.75,322,31393
1746694879880.75,322,31386
1746694879881.75,322,31377
1746694879882.75,322,31365
1746694879883.75,322,31354
1746694879884.75,322,31346
1746694879885.75,322,31333
1746694879886.75,322,31323
1746694879887.75,322,31320
1746694879888.75,323,31312
1746694879889.75,323,31311
1746694879890.75,323,31308
1746694879891.75,323,31300
1746694879892.625,323,31292
1746694879893.625,323,31285
1746694879894.625,323,31276
1746694879895.625,323,31272
1746694879896.625,323,31266
1746694879897.625,323,31262
1746694879898.625,323,31262
1746694879899.625,324,31256
1746694879900.625,324,31256
1746694879901.625,324,31253
1746694879902.625,324,31265
1746694879903.625,324,31271
1746694879904.625,324,31275
1746694879905.625,324,31269
1746694879906.625,324,31264
1746694879907.625,324,31255
1746694879908.531,324,31252
1746694879909.531,324,31239
1746694879910.531,325,31225
1746694879911.531,325,31213
1746694879912.531,325,31204
1746694879913.531,325,31197
1746694879914.531,325,31193
1746694879915.531,325,31193
1746694879916.531,325,31193
1746694879917.531,325,31194
1746694879918.531,325,31197
1746694879919.531,325,31200
1746694879920.531,325,31201
1746694879921.531,326,31205
1746694879922.531,326,31205
1746694879923.531,326,31205
1746694879924.437,326,31200
1746694879925.438,326,31197
1746694879926.437,326,31192
1746694879927.438,326,31186
1746694879928.437,326,31185
1746694879929.4382,326,31180
1746694879930.437,326,31175
1746694879931.438,326,31175
1746694879932.437,327,31182
1746694879933.438,327,31189
1746694879934.438,327,31193
1746694879935.437,327,31195
1746694879936.438,327,31193
1746694879937.437,327,31196
1746694879938.438,327,31193
1746694879939.437,327,31191
1746694879940.313,327,31187
1746694879941.312,327,31182
1746694879942.313,327,31172
1746694879943.312,328,31164
1746694879944.313,328,31152
1746694879945.312,328,31141
1746694879946.312,328,31130
1746694879947.313,328,31128
1746694879948.312,328,31128
1746694879949.313,328,31129
1746694879950.312,328,31131
1746694879951.313,328,31136
1746694879952.312,328,31133
1746694879953.3132,328,31139
1746694879954.312,329,31143
1746694879955.313,329,31150
1746694879956.219,329,31150
1746694879957.219,329,31153
1746694879958.219,329,31152
1746694879959.219,329,31149
1746694879960.219,329,31151
1746694879961.219,329,31151
1746694879962.219,329,31161
1746694879963.219,329,31169
1746694879964.219,329,31173
1746694879965.219,330,31175
1746694879966.219,330,31173
1746694879967.219,330,31169
1746694879968.219,330,31169
1746694879969.219,330,31167
1746694879970.219,330,31159
1746694879971.219,330,31154
1746694879972.062,330,31154
1746694879973.063,330,31149
1746694879974.062,330,31145
1746694879975.063,330,31138
1746694879976.062,331,31135
1746694879977.063,331,31126
1746694879978.062,331,31116
1746694879979.063,331,31109
1746694879980.062,331,31101
1746694879981.063,331,31096
1746694879982.062,331,31094
1746694879983.063,331,31089
1746694879984.062,331,31087
1746694879985.063,331,31089
1746694879986.063,331,31084
1746694879987.062,332,31077
1746694879987.969,332,31075
1746694879988.969,332,31069
1746694879989.969,332,31062
1746694879990.969,332,31060
1746694879991.969,332,31069
1746694879992.969,332,31075
1746694879993.969,332,31081
1746694879994.969,332,31085
1746694879995.969,332,31086
1746694879996.969,332,31080
1746694879997.969,333,31080
1746694879998.969,333,31077
1746694879999.969,333,31078
1746694880000.969,333,31073
1746694880001.969,333,31071
1746694880002.969,333,31067
1746694880003.875,333,31065
1746694880004.875,333,31057
1746694880005.875,333,31057
1746694880006.875,333,31051
1746694880007.875,333,31050
1746694880008.875,334,31048
1746694880009.875,334,31045
1746694880010.875,334,31043
1746694880011.875,334,31041
1746694880012.875,334,31040
1746694880013.875,334,31032
1746694880014.875,334,31023
1746694880015.875,334,31018
1746694880016.875,334,31006
1746694880017.875,334,30995
1746694880018.875,334,30993
1746694880019.75,335,30988
1746694880020.75,335,30991
1746694880021.75,335,30997
1746694880022.75,335,31003
1746694880023.75,335,31006
1746694880024.75,335,31003
1746694880025.75,335,30997
1746694880026.75,335,30989
1746694880027.75,335,30979
1746694880028.75,335,30969
1746694880029.75,335,30976
1746694880030.75,336,30986
1746694880031.75,336,30994
1746694880032.75,336,30995
1746694880033.75,336,31003
1746694880034.75,336,31006
1746694880035.656,336,31007
1746694880036.656,336,31002
1746694880037.656,336,30993
1746694880038.656,336,30984
1746694880039.656,336,30972
1746694880040.656,336,30962
1746694880041.656,337,30952
1746694880042.656,337,30945
1746694880043.656,337,30941
1746694880044.656,337,30936
1746694880045.656,337,30937
1746694880046.656,337,30936
1746694880047.656,337,30933
1746694880048.656,337,30931
1746694880049.656,337,30928
1746694880050.656,337,30926
1746694880051.562,337,30923
1746694880052.563,338,30925
1746694880053.562,338,30928
1746694880054.563,338,30937
1746694880055.562,338,30939
1746694880056.563,338,30941
1746694880057.562,338,30935
1746694880058.563,338,30928
1746694880059.562,338,30927
1746694880060.563,338,30921
1746694880061.562,338,30913
1746694880062.563,338,30903
1746694880063.562,339,30892
1746694880064.563,339,30880
1746694880065.562,339,30871
1746694880066.562,339,30869
1746694880067.438,339,30871
1746694880068.437,339,30874
1746694880069.438,339,30873
1746694880070.437,339,30878
1746694880071.438,339,30884
1746694880072.437,339,30887
1746694880073.438,339,30886
1746694880074.437,340,30893
1746694880075.438,340,30893
1746694880076.437,340,30887
1746694880077.437,340,30880
1746694880078.438,340,30871
1746694880079.437,340,30861
1746694880080.438,340,30845
1746694880081.437,340,30839
1746694880082.438,340,30833
1746694880083.344,340,30824
1746694880084.344,340,30817
1746694880085.344,341,30813
1746694880086.344,341,30813
1746694880087.344,341,30807
1746694880088.344,341,30802
1746694880089.344,341,30809
1746694880090.344,341,30810
1746694880091.3442,341,30813
1746694880092.344,341,30812
1746694880093.344,341,30810
1746694880094.344,341,30806
1746694880095.344,341,30797
1746694880096.344,342,30796
1746694880097.344,342,30795
1746694880098.344,342,30794
1746694880099.219,342,30787
1746694880100.219,342,30779
1746694880101.219,342,30767
1746694880102.219,342,30754
1746694880103.219,342,30736
1746694880104.219,342,30725
1746694880105.219,342,30715
1746694880106.219,342,30703
1746694880107.219,343,30695
1746694880108.219,343,30683
1746694880109.219,343,30677
1746694880110.219,343,30670
1746694880111.219,343,30667
1746694880112.219,343,30667
1746694880113.219,343,30673
1746694880114.219,343,30675
1746694880115.156,343,30684
1746694880116.156,343,30685
1746694880117.156,343,30690
1746694880118.156,344,30692
1746694880119.1558,344,30693
1746694880120.156,344,30695
1746694880121.156,344,30702
1746694880122.156,344,30690
1746694880123.156,344,30678
1746694880124.156,344,30673
1746694880125.156,344,30662
1746694880126.156,344,30655
1746694880127.156,344,30650
1746694880128.156,344,30645
1746694880129.156,345,30643
1746694880130.156,345,30644
1746694880131.0,345,30641
1746694880132.0,345,30639
1746694880133.0,345,30639
1746694880134.0,345,30641
1746694880135.0,345,30640
1746694880136.0,345,30639
1746694880137.0,345,30632
1746694880138.0,345,30630
1746694880139.0,345,30625
1746694880140.0,346,30622
1746694880141.0,346,30617
1746694880142.0,346,30612
1746694880143.0,346,30606
1746694880144.0,346,30601
1746694880145.0,346,30589
1746694880146.0,346,30587
1746694880146.906,346,30577
1746694880147.906,346,30571
1746694880148.906,346,30572
1746694880149.906,346,30581
1746694880150.906,347,30589
1746694880151.906,347,30598
1746694880152.906,347,30603
1746694880153.906,347,30609
1746694880154.906,347,30601
1746694880155.906,347,30599
1746694880156.906,347,30594
1746694880157.906,347,30586
1746694880158.906,347,30576
1746694880159.906,347,30572
1746694880160.906,347,30562
1746694880161.906,348,30556
1746694880162.812,348,30550
1746694880163.8132,348,30541
1746694880164.812,348,30538
1746694880165.813,348,30526
1746694880166.812,348,30518
1746694880167.813,348,30507
1746694880168.813,348,30502
1746694880169.812,348,30495
1746694880170.813,348,30487
1746694880171.812,348,30483
1746694880172.813,349,30483
1746694880173.812,349,30481
1746694880174.813,349,30483
1746694880175.812,349,30485
1746694880176.813,349,30486
1746694880177.812,349,30491
1746694880178.719,349,30491
1746694880179.719,349,30493
1746694880180.719,349,30492
1746694880181.719,349,30491
1746694880182.719,349,30485
1746694880183.719,350,30484
1746694880184.719,350,30477
1746694880185.719,350,30478
1746694880186.719,350,30477
1746694880187.719,350,30481
1746694880188.719,350,30483
1746694880189.719,350,30483
1746694880190.719,350,30477
1746694880191.719,350,30475
1746694880192.719,350,30465
1746694880193.719,350,30467
1746694880194.625,351,30469
1746694880195.625,351,30475
1746694880196.625,351,30475
1746694880197.625,351,30471
1746694880198.625,351,30465
1746694880199.625,351,30458
1746694880200.625,351,30443
1746694880201.625,351,30431
1746694880202.625,351,30419
1746694880203.625,351,30411
1746694880204.625,351,30401
1746694880205.625,352,30397
1746694880206.625,352,30388
1746694880207.625,352,30381
1746694880208.625,352,30377
1746694880209.625,352,30374
1746694880210.531,352,30377
1746694880211.531,352,30381
1746694880212.531,352,30392
1746694880213.531,352,30394
1746694880214.531,352,30399
1746694880215.531,352,30398
1746694880216.531,353,30407
1746694880217.531,353,30413
1746694880218.531,353,30410
1746694880219.531,353,30402
1746694880220.531,353,30393
1746694880221.531,353,30377
1746694880222.531,353,30360
1746694880223.531,353,30344
1746694880224.531,353,30347
1746694880225.531,353,30350
1746694880226.438,353,30349
1746694880227.437,354,30346
1746694880228.438,354,30344
1746694880229.437,354,30338
1746694880230.438,354,30341
1746694880231.437,354,30342
1746694880232.438,354,30341
1746694880233.437,354,30345
1746694880234.438,354,30345
1746694880235.437,354,30349
1746694880236.438,354,30349
1746694880237.437,354,30352
1746694880238.437,355,30347
1746694880239.438,355,30347
1746694880240.437,355,30344
1746694880241.438,355,30343
1746694880242.312,355,30334
1746694880243.313,355,30329
1746694880244.312,355,30319
1746694880245.313,355,30311
1746694880246.312,355,30303
1746694880247.313,355,30306
1746694880248.312,355,30309
1746694880249.312,356,30311
1746694880250.313,356,30303
1746694880251.312,356,30305
1746694880252.313,356,30303
1746694880253.312,356,30305
1746694880254.313,356,30302
1746694880255.312,356,30300
1746694880256.313,356,30289
1746694880257.312,356,30284
1746694880258.188,356,30278
1746694880259.187,356,30269
1746694880260.187,357,30263
1746694880261.188,357,30253
1746694880262.187,357,30248
1746694880263.188,357,30239
1746694880264.187,357,30232
1746694880265.188,357,30233
1746694880266.187,357,30229
1746694880267.188,357,30229
1746694880268.187,357,30227
1746694880269.188,357,30224
1746694880270.187,357,30223
1746694880271.188,358,30224
1746694880272.187,358,30219
1746694880273.1882,358,30223
1746694880274.094,358,30220
1746694880275.094,358,30213
1746694880276.094,358,30215
1746694880277.094,358,30213
1746694880278.094,358,30210
1746694880279.094,358,30212
1746694880280.094,358,30213
1746694880281.094,358,30212
1746694880282.094,359,30210
1746694880283.094,359,30215
1746694880284.094,359,30221
1746694880285.094,359,30231
1746694880286.094,359,30235
1746694880287.0942,359,30233
1746694880288.094,359,30230
1746694880289.094,359,30224
1746694880289.969,359,30211
1746694880290.969,359,30201
1746694880291.969,359,30191
1746694880292.969,360,30180
1746694880293.969,360,30173
1746694880294.969,360,30166
1746694880295.969,360,30152
1746694880296.969,360,30143
1746694880297.969,360,30144
1746694880298.969,360,30149
1746694880299.969,360,30158
1746694880300.969,360,30168
1746694880301.969,360,30173
1746694880302.969,360,30177
1746694880303.969,361,30189
1746694880304.969,361,30195
1746694880305.906,361,30202
1746694880306.906,361,30205
1746694880307.906,361,30204
1746694880308.906,361,30203
1746694880309.906,361,30198
1746694880310.906,361,30190
1746694880311.906,361,30183
1746694880312.906,361,30174
1746694880313.906,361,30171
1746694880314.9058,362,30174
1746694880315.906,362,30171
1746694880316.906,362,30167
1746694880317.906,362,30159
1746694880318.906,362,30150
1746694880319.906,362,30152
1746694880320.906,362,30143
1746694880321.781,362,30138
1746694880322.781,362,30138
1746694880323.781,362,30134
1746694880324.781,362,30133
1746694880325.781,363,30131
1746694880326.781,363,30125
1746694880327.781,363,30126
1746694880328.781,363,30119
1746694880329.781,363,30117
1746694880330.781,363,30117
1746694880331.781,363,30115
1746694880332.781,363,30113
1746694880333.781,363,30109
1746694880334.781,363,30101
1746694880335.781,363,30103
1746694880336.781,364,30107
1746694880337.656,364,30112
1746694880338.656,364,30111
1746694880339.656,364,30111
1746694880340.656,364,30112
1746694880341.656,364,30108
1746694880342.656,364,30110
1746694880343.656,364,30105
1746694880344.656,364,30106
1746694880345.656,364,30107
1746694880346.656,364,30106
1746694880347.656,365,30107
1746694880348.656,365,30106
1746694880349.656,365,30106
1746694880350.656,365,30112
1746694880351.656,365,30116
1746694880352.656,365,30115
1746694880353.5308,365,30110
1746694880354.531,365,30103
1746694880355.531,365,30098
1746694880356.531,365,30085
1746694880357.531,365,30075
1746694880358.531,366,30061
1746694880359.531,366,30059
1746694880360.531,366,30056
1746694880361.531,366,30058
1746694880362.531,366,30057
1746694880363.531,366,30061
1746694880364.531,366,30067
1746694880365.531,366,30075
1746694880366.531,366,30082
1746694880367.531,366,30085
1746694880368.531,366,30092
1746694880369.437,367,30091
1746694880370.438,367,30091
1746694880371.437,367,30094
1746694880372.438,367,30088
1746694880373.437,367,30092
1746694880374.438,367,30093
1746694880375.437,367,30096
1746694880376.438,367,30091
1746694880377.437,367,30089
1746694880378.438,367,30092
1746694880379.437,367,30091
1746694880380.438,368,30085
1746694880381.438,368,30086
1746694880382.437,368,30092
1746694880383.438,368,30094
1746694880384.437,368,30095
1746694880385.313,368,30095
1746694880386.312,368,30086
1746694880387.313,368,30072
1746694880388.312,368,30059
1746694880389.313,368,30049
1746694880390.312,368,30039
1746694880391.313,369,30027
1746694880392.313,369,30024
1746694880393.312,369,30027
1746694880394.313,369,30030
1746694880395.312,369,30037
1746694880396.313,369,30043
1746694880397.312,369,30049
1746694880398.313,369,30050
1746694880399.312,369,30054
1746694880400.313,369,30052
1746694880401.219,369,30057
1746694880402.219,370,30063
1746694880403.219,370,30070
1746694880404.219,370,30066
1746694880405.219,370,30063
1746694880406.219,370,30062
1746694880407.219,370,30056
1746694880408.219,370,30052
1746694880409.219,370,30051
1746694880410.219,370,30049
1746694880411.219,370,30047
1746694880412.219,370,30049
1746694880413.219,371,30057
1746694880414.219,371,30059
1746694880415.219,371,30063
1746694880416.219,371,30071
1746694880417.125,371,30079
1746694880418.125,371,30085
1746694880419.125,371,30095
1746694880420.125,371,30101
1746694880421.125,371,30105
1746694880422.125,371,30107
1746694880423.125,371,30101
1746694880424.125,372,30095
1746694880425.125,372,30079
1746694880426.125,372,30066
1746694880427.125,372,30060
1746694880428.125,372,30045
1746694880429.125,372,30030
1746694880430.125,372,30016
1746694880431.125,372,30008
1746694880432.125,372,29999
1746694880433.0,372,29997
1746694880434.0,372,30002
1746694880435.0,373,30002
1746694880436.0,373,30003
1746694880437.0,373,30010
1746694880438.0,373,30019
1746694880439.0,373,30024
1746694880440.0,373,30023
1746694880441.0,373,30029
1746694880442.0,373,30031
1746694880443.0,373,30038
1746694880444.0,373,30036
1746694880445.0,373,30037
1746694880446.0,374,30035
1746694880447.0,374,30033
1746694880448.0,374,30033
1746694880448.906,374,30031
1746694880449.906,374,30033
1746694880450.906,374,30029
1746694880451.906,374,30030
1746694880452.906,374,30031
1746694880453.906,374,30027
1746694880454.906,374,30025
1746694880455.906,374,30026
1746694880456.906,375,30035
1746694880457.906,375,30047
1746694880458.906,375,30054
1746694880459.906,375,30060
1746694880460.906,375,30063
1746694880461.906,375,30061
1746694880462.9058,375,30057
1746694880463.906,375,30053
1746694880464.781,375,30046
1746694880465.781,375,30040
1746694880466.781,375,30036
1746694880467.781,376,30034
1746694880468.781,376,30028
1746694880469.781,376,30023
1746694880470.781,376,30029
1746694880471.781,376,30030
1746694880472.781,376,30032
1746694880473.781,376,30039
1746694880474.781,376,30041
1746694880475.781,376,30043
1746694880476.781,376,30043
1746694880477.781,376,30038
1746694880478.781,377,30039
1746694880479.781,377,30049
1746694880480.687,377,30061
1746694880481.688,377,30062
1746694880482.687,377,30064
1746694880483.687,377,30065
1746694880484.688,377,30060
1746694880485.687,377,30061
1746694880486.688,377,30060
1746694880487.687,377,30057
1746694880488.688,377,30053
1746694880489.687,378,30047
1746694880490.688,378,30045
1746694880491.687,378,30039
1746694880492.688,378,30035
1746694880493.687,378,30033
1746694880494.688,378,30029
1746694880495.687,378,30022
1746694880496.562,378,30025
1746694880497.563,378,30032
1746694880498.562,378,30039
1746694880499.563,378,30049
1746694880500.562,379,30055
1746694880501.563,379,30061
1746694880502.562,379,30061
1746694880503.563,379,30057
1746694880504.562,379,30056
1746694880505.563,379,30053
1746694880506.562,379,30051
1746694880507.5632,379,30049
1746694880508.562,379,30048
1746694880509.563,379,30043
1746694880510.562,379,30046
1746694880511.563,380,30046
1746694880512.438,380,30044
1746694880513.437,380,30043
1746694880514.438,380,30042
1746694880515.4368,380,30038
1746694880516.438,380,30041
1746694880517.437,380,30047
1746694880518.438,380,30047
1746694880519.437,380,30049
1746694880520.438,380,30048
1746694880521.437,380,30049
1746694880522.438,381,30044
1746694880523.438,381,30046
1746694880524.437,381,30043
1746694880525.438,381,30043
1746694880526.437,381,30047
1746694880527.438,381,30046
1746694880528.312,381,30051
1746694880529.313,381,30058
1746694880530.312,381,30061
1746694880531.313,381,30063
1746694880532.312,381,30068
1746694880533.313,382,30069
1746694880534.312,382,30070
1746694880535.312,382,30075
1746694880536.313,382,30073
1746694880537.312,382,30078
1746694880538.313,382,30074
1746694880539.3118,382,30071
1746694880540.313,382,30065
1746694880541.312,382,30059
1746694880542.313,382,30052
1746694880543.312,382,30054
1746694880544.25,383,30049
1746694880545.25,383,30047
1746694880546.25,383,30051
1746694880547.25,383,30058
1746694880548.25,383,30064
1746694880549.25,383,30064
1746694880550.25,383,30057
1746694880551.25,383,30056
1746694880552.25,383,30052
1746694880553.25,383,30049
1746694880554.25,383,30054
1746694880555.25,384,30067
1746694880556.25,384,30066
1746694880557.25,384,30072
1746694880558.25,384,30073
1746694880559.25,384,30075
1746694880560.187,384,30078
1746694880561.188,384,30079
1746694880562.187,384,30081
1746694880563.188,384,30086
1746694880564.188,384,30089
1746694880565.187,384,30090
1746694880566.188,385,30091
1746694880567.187,385,30094
1746694880568.188,385,30100
1746694880569.187,385,30104
1746694880570.188,385,30107
1746694880571.187,385,30113
1746694880572.188,385,30115
1746694880573.187,385,30118
1746694880574.188,385,30116
1746694880575.187,385,30116
1746694880576.031,385,30115
1746694880577.031,386,30114
1746694880578.031,386,30111
1746694880579.031,386,30111
1746694880580.031,386,30107
1746694880581.031,386,30108
1746694880582.031,386,30109
1746694880583.031,386,30107
1746694880584.031,386,30115
1746694880585.031,386,30127
1746694880586.031,386,30140
1746694880587.031,386,30157
1746694880588.031,387,30167
1746694880589.031,387,30177
1746694880590.031,387,30187
1746694880591.031,387,30200
1746694880591.906,387,30214
1746694880592.906,387,30229
1746694880593.906,387,30242
1746694880594.906,387,30249
1746694880595.906,387,30258
1746694880596.906,387,30264
1746694880597.906,387,30267
1746694880598.906,388,30270
1746694880599.906,388,30278
1746694880600.906,388,30283
1746694880601.906,388,30287
1746694880602.906,388,30295
1746694880603.906,388,30301
1746694880604.906,388,30311
1746694880605.906,388,30317
1746694880606.906,388,30325
1746694880607.812,388,30329
1746694880608.813,388,30332
1746694880609.812,389,30333
1746694880610.813,389,30335
1746694880611.812,389,30333
1746694880612.813,389,30331
1746694880613.812,389,30337
1746694880614.813,389,30350
1746694880615.813,389,30355
1746694880616.812,389,30360
1746694880617.813,389,30361
1746694880618.812,389,30357
1746694880619.813,389,30347
1746694880620.812,390,30339
1746694880621.813,390,30323
1746694880622.812,390,30318
1746694880623.688,390,30307
1746694880624.687,390,30295
1746694880625.688,390,30285
1746694880626.688,390,30273
1746694880627.687,390,30267
1746694880628.688,390,30259
1746694880629.687,390,30256
1746694880630.688,390,30259
1746694880631.687,391,30262
1746694880632.688,391,30265
1746694880633.687,391,30267
1746694880634.688,391,30262
1746694880635.687,391,30260
1746694880636.688,391,30258
1746694880637.687,391,30257
1746694880638.688,391,30253
1746694880639.594,391,30249
1746694880640.594,391,30245
1746694880641.594,391,30230
1746694880642.594,392,30217
1746694880643.594,392,30209
1746694880644.594,392,30200
1746694880645.594,392,30189
1746694880646.594,392,30167
1746694880647.594,392,30154
1746694880648.594,392,30143
1746694880649.594,392,30127
1746694880650.594,392,30126
1746694880651.594,392,30112
1746694880652.594,392,30101
1746694880653.594,393,30098
1746694880654.594,393,30091
1746694880655.469,393,30086
1746694880656.469,393,30089
1746694880657.469,393,30083
1746694880658.469,393,30085
1746694880659.469,393,30084
1746694880660.469,393,30079
1746694880661.469,393,30080
1746694880662.469,393,30077
1746694880663.469,393,30077
1746694880664.469,394,30071
1746694880665.469,394,30065
1746694880666.469,394,30067
1746694880667.469,394,30070
1746694880668.469,394,30075
1746694880669.4692,394,30069
1746694880670.469,394,30069
1746694880671.344,394,30071
1746694880672.344,394,30073
1746694880673.344,394,30082
1746694880674.344,394,30091
1746694880675.344,395,30105
1746694880676.344,395,30106
1746694880677.344,395,30110
1746694880678.344,395,30112
1746694880679.344,395,30113
1746694880680.344,395,30117
