Untitled1.acq
Graph Created on: 2025-05-08 10:32:57.656
Recording on: 2025-05-08 10:44:02.601
1 msec/sample
2 channels
PPG, X, PPGED-R
Volts
ECG, X, RSPEC-R
mV
CH1	CH9	
168337 samples	168337 samples	
0.0570679	-0.0463867	
0.0564575	-0.045929	
0.0585938	-0.0442505	
0.06073	-0.0437927	
0.0616455	-0.0476074	
0.0613403	-0.0521851	
0.0610352	-0.0531006	
0.0610352	-0.052948	
0.0610352	-0.052948	
0.0616455	-0.0549316	
0.0653076	-0.0576782	
0.065918	-0.0602722	
0.0656128	-0.0585938	
0.0662231	-0.0537109	
0.067749	-0.0508118	
0.071106	-0.0500488	
0.071106	-0.0479126	
0.071106	-0.045929	
0.0753784	-0.0482178	
0.0759888	-0.0508118	
0.0762939	-0.0494385	
0.0759888	-0.0485229	
0.0802612	-0.0483704	
0.0808716	-0.0498962	
0.0802612	-0.0506592	
0.0808716	-0.0476074	
0.0808716	-0.0497437	
0.0805664	-0.0526428	
0.0805664	-0.0512695	
0.0802612	-0.0509644	
0.0802612	-0.0512695	
0.0808716	-0.052948	
0.0808716	-0.0531006	
0.0802612	-0.0534058	
0.0811768	-0.0535583	
0.0762939	-0.0515747	
0.0756836	-0.0485229	
0.0756836	-0.0480652	
0.0756836	-0.0495911	
0.0759888	-0.0483704	
0.0759888	-0.045929	
0.0738525	-0.0479126	
0.071106	-0.0500488	
0.071106	-0.0508118	
0.071106	-0.0527954	
0.0686646	-0.0556946	
0.0671387	-0.0601196	
0.0662231	-0.0610352	
0.0662231	-0.0569153	
0.0643921	-0.0512695	
0.0613403	-0.0505066	
0.0598145	-0.0547791	
0.0588989	-0.0543213	
0.0585938	-0.0514221	
0.0564575	-0.0485229	
0.0561523	-0.0505066	
0.0546265	-0.052948	
0.0515747	-0.0512695	
0.0512695	-0.0466919	
0.0518799	-0.0445557	
0.0473022	-0.0434875	
0.0469971	-0.04776	
0.0445557	-0.0524902	
0.0411987	-0.0532532	
0.0418091	-0.0535583	
0.0418091	-0.0537109	
0.0411987	-0.0534058	
0.0369263	-0.0532532	
0.0369263	-0.0531006	
0.0363159	-0.0534058	
0.0338745	-0.0515747	
0.0363159	-0.0505066	
0.0326538	-0.050354	
0.0317383	-0.0526428	
0.0274658	-0.0531006	
0.0271606	-0.0517273	
0.0274658	-0.0515747	
0.0268555	-0.0518799	
0.0268555	-0.0482178	
0.0268555	-0.0460815	
0.0250244	-0.0456238	
0.0274658	-0.0460815	
0.022583	-0.0463867	
0.0222778	-0.0476074	
0.0216675	-0.0483704	
0.0219727	-0.0506592	
0.0216675	-0.0534058	
0.0219727	-0.0537109	
0.0216675	-0.0511169	
0.0198364	-0.0491333	
0.0198364	-0.0506592	
0.0177002	-0.0517273	
0.0164795	-0.0506592	
0.0167847	-0.0526428	
0.0152588	-0.0553894	
0.0125122	-0.0534058	
0.012207	-0.0495911	
0.0115967	-0.0466919	
0.00976563	-0.0457764	
0.00701904	-0.0456238	
0.00732422	-0.0500488	
0.00762939	-0.0523376	
0.00518799	-0.0532532	
0.00244141	-0.0534058	
0.00274658	-0.052948	
0.00244141	-0.0527954	
0.000305176	-0.0517273	
-0.00274658	-0.0488281	
-0.00244141	-0.0476074	
-0.00701904	-0.0486755	
-0.00732422	-0.0508118	
-0.00762939	-0.0508118	
-0.0115967	-0.0511169	
-0.0119019	-0.0547791	
-0.012207	-0.0558472	
-0.0164795	-0.0541687	
-0.0170898	-0.0515747	
-0.0170898	-0.0524902	
-0.0177002	-0.0514221	
-0.0186157	-0.0491333	
-0.0195313	-0.0483704	
-0.0219727	-0.0515747	
-0.0216675	-0.0553894	
-0.022583	-0.0543213	
-0.0219727	-0.0518799	
-0.0244141	-0.0511169	
-0.0219727	-0.0531006	
-0.0259399	-0.0532532	
-0.0268555	-0.0532532	
-0.0265503	-0.0508118	
-0.0268555	-0.0471497	
-0.0265503	-0.0456238	
-0.0271606	-0.0483704	
-0.0265503	-0.0520325	
-0.0283813	-0.0547791	
-0.0314331	-0.0538635	
-0.0292969	-0.0517273	
-0.0323486	-0.0488281	
-0.0320435	-0.0466919	
-0.0320435	-0.0456238	
-0.0332642	-0.045166	
-0.0366211	-0.045929	
-0.0366211	-0.0498962	
-0.0411987	-0.050354	
-0.043335	-0.0502014	
-0.0454712	-0.0506592	
-0.0466919	-0.0527954	
-0.0491333	-0.0532532	
-0.0512695	-0.0517273	
-0.0540161	-0.0502014	
-0.0564575	-0.0485229	
-0.0582886	-0.0466919	
-0.0613403	-0.0474548	
-0.0616455	-0.0505066	
-0.0613403	-0.0505066	
-0.065918	-0.0482178	
-0.0662231	-0.0480652	
-0.0662231	-0.045929	
-0.0704956	-0.0465393	
-0.0714111	-0.0483704	
-0.0717163	-0.0505066	
-0.0714111	-0.0526428	
-0.0726318	-0.0546265	
-0.0759888	-0.055542	
-0.0778198	-0.0572205	
-0.0808716	-0.0553894	
-0.083313	-0.0517273	
-0.0854492	-0.0485229	
-0.0900269	-0.0479126	
-0.0921631	-0.0500488	
-0.0973511	-0.0521851	
-0.100708	-0.052948	
-0.100403	-0.0547791	
-0.10437	-0.0537109	
-0.105286	-0.0506592	
-0.105286	-0.0469971	
-0.109253	-0.04776	
-0.110168	-0.0486755	
-0.110168	-0.0483704	
-0.110168	-0.0497437	
-0.111084	-0.0492859	
-0.110474	-0.0466919	
-0.110779	-0.0474548	
-0.110168	-0.0482178	
-0.109253	-0.0483704	
-0.110168	-0.0482178	
-0.110474	-0.0469971	
-0.114441	-0.0445557	
-0.111084	-0.045166	
-0.114136	-0.0476074	
-0.115051	-0.0485229	
-0.115967	-0.0485229	
-0.116882	-0.0485229	
-0.115356	-0.0463867	
-0.117188	-0.0436401	
-0.120239	-0.0437927	
-0.120239	-0.0473022	
-0.122681	-0.0480652	
-0.125122	-0.0468445	
-0.126038	-0.0488281	
-0.1297	-0.0502014	
-0.133667	-0.0511169	
-0.13916	-0.0531006	
-0.142517	-0.052948	
-0.144653	-0.0509644	
-0.149231	-0.0489807	
-0.154114	-0.0483704	
-0.154419	-0.0486755	
-0.158691	-0.0521851	
-0.162048	-0.0511169	
-0.163574	-0.0511169	
-0.16571	-0.0511169	
-0.169373	-0.0509644	
-0.168762	-0.0480652	
-0.173035	-0.0457764	
-0.17395	-0.045166	
-0.177917	-0.0434875	
-0.18158	-0.0437927	
-0.184021	-0.0440979	
-0.185547	-0.0436401	
-0.189209	-0.043335	
-0.189209	-0.045166	
-0.195313	-0.0457764	
-0.197144	-0.045929	
-0.198364	-0.0474548	
-0.19928	-0.0474548	
-0.202942	-0.0480652	
-0.203857	-0.0502014	
-0.205994	-0.0485229	
-0.20874	-0.0508118	
-0.208435	-0.0531006	
-0.210571	-0.0537109	
-0.209351	-0.0552368	
-0.210876	-0.0543213	
-0.213013	-0.0508118	
-0.211487	-0.0450134	
-0.211182	-0.045929	
-0.211487	-0.0460815	
-0.209045	-0.0460815	
-0.208435	-0.0442505	
-0.206299	-0.0436401	
-0.203552	-0.0434875	
-0.205994	-0.0431824	
-0.203857	-0.0436401	
-0.203857	-0.0450134	
-0.204163	-0.0473022	
-0.201721	-0.0480652	
-0.201416	-0.0463867	
-0.198059	-0.0466919	
-0.198975	-0.0476074	
-0.198975	-0.0483704	
-0.19928	-0.0485229	
-0.194702	-0.0498962	
-0.194092	-0.0523376	
-0.196838	-0.052948	
-0.193481	-0.0508118	
-0.195618	-0.0444031	
-0.194092	-0.0436401	
-0.195923	-0.0436401	
-0.198364	-0.0457764	
-0.198669	-0.045929	
-0.198364	-0.0460815	
-0.198364	-0.0483704	
-0.198975	-0.0498962	
-0.198975	-0.0488281	
-0.198975	-0.0483704	
-0.200806	-0.0506592	
-0.203857	-0.0508118	
-0.203857	-0.0508118	
-0.203247	-0.0506592	
-0.203857	-0.0488281	
-0.20752	-0.0445557	
-0.20874	-0.0434875	
-0.20874	-0.0436401	
-0.209045	-0.0419617	
-0.20813	-0.0408936	
-0.209045	-0.0427246	
-0.209351	-0.0457764	
-0.20874	-0.0457764	
-0.208435	-0.0457764	
-0.20874	-0.045929	
-0.204468	-0.0482178	
-0.206299	-0.0483704	
-0.203552	-0.0483704	
-0.203552	-0.0483704	
-0.203857	-0.0468445	
-0.203857	-0.045929	
-0.204468	-0.045929	
-0.202026	-0.0473022	
-0.203247	-0.0474548	
-0.204163	-0.0419617	
-0.204163	-0.0382996	
-0.204468	-0.035553	
-0.205383	-0.0364685	
-0.206604	-0.0379944	
-0.20874	-0.0382996	
-0.206604	-0.0411987	
-0.20874	-0.043335	
-0.211182	-0.0436401	
-0.213013	-0.0456238	
-0.213623	-0.0453186	
-0.213318	-0.0415039	
-0.217896	-0.0410461	
-0.218506	-0.0390625	
-0.218506	-0.042572	
-0.218506	-0.0436401	
-0.220337	-0.0456238	
-0.218811	-0.0457764	
-0.223083	-0.0436401	
-0.221558	-0.0453186	
-0.223083	-0.0473022	
-0.223083	-0.0482178	
-0.223694	-0.0465393	
-0.224915	-0.0415039	
-0.227966	-0.0370789	
-0.227966	-0.0358582	
-0.228577	-0.0360107	
-0.228271	-0.0375366	
-0.230408	-0.0401306	
-0.233459	-0.0427246	
-0.237427	-0.0447083	
-0.238342	-0.043335	
-0.240173	-0.0411987	
-0.242615	-0.0413513	
-0.242615	-0.043335	
-0.245667	-0.0436401	
-0.247803	-0.0454712	
-0.247498	-0.0473022	
-0.247803	-0.0479126	
-0.247498	-0.0454712	
-0.248108	-0.0437927	
-0.247803	-0.0431824	
-0.246277	-0.0411987	
-0.24292	-0.0404358	
-0.243225	-0.0424194	
-0.24292	-0.0393677	
-0.238647	-0.0367737	
-0.237427	-0.0338745	
-0.238037	-0.0332642	
-0.238037	-0.0361633	
-0.235901	-0.0386047	
-0.233765	-0.0405884	
-0.237427	-0.040741	
-0.23407	-0.0402832	
-0.233459	-0.0370789	
-0.233154	-0.032196	
-0.233154	-0.0312805	
-0.229797	-0.0354004	
-0.228577	-0.0367737	
-0.228271	-0.0340271	
-0.228577	-0.0292969	
-0.228577	-0.0262451	
-0.228882	-0.0234985	
-0.228577	-0.0213623	
-0.22583	-0.0212097	
-0.225525	-0.0195313	
-0.224304	-0.0183105	
-0.22522	-0.0135803	
-0.224304	-0.00778198	
-0.226135	-0.00839233	
-0.226135	-0.0135803	
-0.22644	-0.0227356	
-0.22522	-0.0283813	
-0.22644	-0.0268555	
-0.227966	-0.0202942	
-0.227966	-0.0167847	
-0.228577	-0.0146484	
-0.230408	-0.0100708	
-0.229187	-0.0111389	
-0.232544	-0.0114441	
-0.232849	-0.0112915	
-0.235596	-0.00915527	
-0.235291	-0.00900269	
-0.237732	-0.00717163	
-0.238037	-0.00427246	
-0.238037	0.0012207	
-0.239563	0.0050354	
-0.24292	0.00595093	
-0.240784	0.00595093	
-0.24231	0.00961304	
-0.24231	0.0161743	
-0.24292	0.0219727	
-0.242615	0.0268555	
-0.24231	0.0314331	
-0.242615	0.0326538	
-0.242615	0.0343323	
-0.24292	0.0369263	
-0.24353	0.039978	
-0.240784	0.0454712	
-0.24292	0.0447083	
-0.24292	0.0460815	
-0.240479	0.0483704	
-0.240479	0.0494385	
-0.238037	0.0480652	
-0.242004	0.0469971	
-0.240784	0.0508118	
-0.242615	0.0518799	
-0.243225	0.0512695	
-0.242615	0.0474548	
-0.244446	0.045166	
-0.243225	0.0482178	
-0.247192	0.0535583	
-0.245361	0.0538635	
-0.247498	0.0494385	
-0.24353	0.0424194	
-0.246887	0.0358582	
-0.245667	0.0289917	
-0.24292	0.0215149	
-0.243225	0.0135803	
-0.243225	0.00854492	
-0.245361	0.00579834	
-0.243835	0.00518799	
-0.24292	0.00152588	
-0.243225	0.00213623	
-0.243225	0.00457764	
-0.243225	0.00488281	
-0.24231	0.00335693	
-0.24292	-0.00137329	
-0.24292	-0.00686646	
-0.24292	-0.00946045	
-0.242615	-0.0108337	
-0.246582	-0.0135803	
-0.245667	-0.0180054	
-0.247498	-0.0210571	
-0.248108	-0.0241089	
-0.245972	-0.0294495	
-0.243225	-0.0354004	
-0.243225	-0.0386047	
-0.24231	-0.0379944	
-0.24292	-0.0404358	
-0.238647	-0.0474548	
-0.238342	-0.0547791	
-0.238342	-0.0598145	
-0.233765	-0.0624084	
-0.233154	-0.0653076	
-0.228577	-0.0671387	
-0.228271	-0.0665283	
-0.22644	-0.0668335	
-0.223389	-0.0637817	
-0.222778	-0.0631714	
-0.220337	-0.0613403	
-0.218201	-0.0564575	
-0.218201	-0.0563049	
-0.213623	-0.0621033	
-0.213623	-0.0654602	
-0.211182	-0.0656128	
-0.209045	-0.0646973	
-0.209045	-0.0657654	
-0.209045	-0.0679016	
-0.209351	-0.0662231	
-0.210876	-0.063324	
-0.211487	-0.062561	
-0.213318	-0.0602722	
-0.213318	-0.0582886	
-0.213318	-0.058136	
-0.213623	-0.058136	
-0.213013	-0.0566101	
-0.218201	-0.0558472	
-0.216675	-0.0550842	
-0.217896	-0.0592041	
-0.218811	-0.0584412	
-0.218201	-0.058136	
-0.218506	-0.0578308	
-0.219116	-0.0556946	
-0.218811	-0.057373	
-0.218811	-0.0614929	
-0.220337	-0.0627136	
-0.223083	-0.0588989	
-0.223389	-0.0582886	
-0.227051	-0.0582886	
-0.228271	-0.0621033	
-0.230713	-0.0630188	
-0.232849	-0.0613403	
-0.236816	-0.0604248	
-0.238342	-0.06073	
-0.240173	-0.0590515	
-0.24231	-0.0564575	
-0.244751	-0.0540161	
-0.247192	-0.0532532	
-0.247803	-0.0550842	
-0.250244	-0.0570679	
-0.250854	-0.0576782	
-0.252991	-0.0556946	
-0.254517	-0.0576782	
-0.257568	-0.0598145	
-0.257568	-0.059967	
-0.257874	-0.0582886	
-0.261841	-0.0576782	
-0.261841	-0.0559998	
-0.262451	-0.057373	
-0.263062	-0.0579834	
-0.262146	-0.0575256	
-0.262146	-0.0521851	
-0.262146	-0.0492859	
-0.264282	-0.0488281	
-0.265198	-0.0480652	
-0.266724	-0.0456238	
-0.264893	-0.0454712	
-0.265503	-0.0460815	
-0.266724	-0.0488281	
-0.267029	-0.0508118	
-0.265198	-0.050354	
-0.265503	-0.0527954	
-0.267029	-0.0535583	
-0.265503	-0.0517273	
-0.267029	-0.0506592	
-0.263367	-0.0489807	
-0.262451	-0.0460815	
-0.263367	-0.0439453	
-0.261841	-0.0453186	
-0.262756	-0.045929	
-0.262146	-0.0437927	
-0.262756	-0.0376892	
-0.262756	-0.0323486	
-0.260925	-0.0247192	
-0.257263	-0.0146484	
-0.257874	-0.00396729	
-0.257568	0.00701904	
-0.257874	0.0187683	
-0.257263	0.0311279	
-0.256042	0.0384521	
-0.252991	0.038147	
-0.252686	0.0357056	
-0.254517	0.0350952	
-0.254822	0.0390625	
-0.252686	0.0418091	
-0.254822	0.0482178	
-0.256042	0.0566101	
-0.256653	0.0657654	
-0.257263	0.0794983	
-0.258179	0.0941467	
-0.256958	0.112915	
-0.258179	0.130463	
-0.257263	0.147247	
-0.257568	0.158386	
-0.257263	0.169983	
-0.258484	0.189056	
-0.258179	0.212402	
-0.261536	0.243378	
-0.257874	0.279541	
-0.257263	0.314789	
-0.261536	0.346985	
-0.261841	0.378113	
-0.262451	0.407562	
-0.262146	0.431061	
-0.262451	0.449219	
-0.262756	0.46402	
-0.262146	0.474548	
-0.264282	0.493622	
-0.262451	0.516052	
-0.266724	0.523834	
-0.267029	0.513611	
-0.263062	0.479736	
-0.264587	0.434265	
-0.263367	0.379028	
-0.262451	0.302124	
-0.262756	0.217285	
-0.262756	0.142517	
-0.262451	0.0990295	
-0.263062	0.0785828	
-0.262756	0.067749	
-0.262146	0.0613403	
-0.262451	0.0549316	
-0.264282	0.0471497	
-0.263367	0.0318909	
-0.262451	0.00640869	
-0.264282	-0.0160217	
-0.265503	-0.0260925	
-0.267029	-0.0325012	
-0.267029	-0.0422668	
-0.267944	-0.0524902	
-0.267639	-0.0627136	
-0.269165	-0.0811768	
-0.271912	-0.114746	
-0.274353	-0.159607	
-0.277405	-0.19104	
-0.276489	-0.192719	
-0.279236	-0.17334	
-0.281677	-0.145721	
-0.283203	-0.121918	
-0.284119	-0.0971985	
-0.286865	-0.0776672	
-0.28717	-0.0610352	
-0.289307	-0.0474548	
-0.292053	-0.037384	
-0.293884	-0.0335693	
-0.296631	-0.0334167	
-0.296936	-0.0337219	
-0.298767	-0.0378418	
-0.301819	-0.0401306	
-0.301819	-0.042572	
-0.305786	-0.043335	
-0.306702	-0.0434875	
-0.309143	-0.0485229	
-0.308838	-0.0497437	
-0.31189	-0.0482178	
-0.31189	-0.0483704	
-0.313721	-0.0491333	
-0.315857	-0.0514221	
-0.316772	-0.0552368	
-0.316162	-0.0556946	
-0.316162	-0.0540161	
-0.317383	-0.0534058	
-0.316467	-0.0578308	
-0.316162	-0.0604248	
-0.314331	-0.0621033	
-0.314026	-0.0627136	
-0.312195	-0.0567627	
-0.31189	-0.0515747	
-0.309448	-0.0512695	
-0.307312	-0.0556946	
-0.304871	-0.0561523	
-0.303955	-0.0537109	
-0.302124	-0.0532532	
-0.299988	-0.0531006	
-0.297546	-0.0531006	
-0.296936	-0.0497437	
-0.297241	-0.0469971	
-0.297241	-0.0457764	
-0.296326	-0.0444031	
-0.296326	-0.0434875	
-0.292664	-0.043335	
-0.292053	-0.045166	
-0.291443	-0.0430298	
-0.292053	-0.0393677	
-0.289917	-0.0369263	
-0.289001	-0.0343323	
-0.292358	-0.0312805	
-0.289917	-0.0309753	
-0.287476	-0.032959	
-0.28717	-0.0318909	
-0.287476	-0.0296021	
-0.284729	-0.0270081	
-0.282898	-0.0257874	
-0.281982	-0.0244141	
-0.27832	-0.0238037	
-0.275574	-0.0216675	
-0.271912	-0.0172424	
-0.272217	-0.0157166	
-0.270386	-0.018158	
-0.267639	-0.0204468	
-0.267334	-0.0210571	
-0.266724	-0.0186157	
-0.267334	-0.0164795	
-0.267029	-0.0166321	
-0.263367	-0.0183105	
-0.266418	-0.0190735	
-0.267334	-0.0187683	
-0.267639	-0.0170898	
-0.267639	-0.0144958	
-0.266724	-0.0140381	
-0.267029	-0.0138855	
-0.267029	-0.0137329	
-0.267029	-0.00793457	
-0.271606	-0.00427246	
-0.270691	-0.00411987	
-0.267944	-0.0038147	
-0.270081	-0.00167847	
-0.271912	-0.00198364	
-0.272217	-0.00473022	
-0.272217	-0.00671387	
-0.273743	-0.00610352	
-0.275574	-0.00427246	
-0.274963	-0.00427246	
-0.274353	-0.00396729	
-0.275269	-0.00335693	
-0.2771	-0.00610352	
-0.275574	-0.00671387	
-0.2771	-0.00656128	
-0.277405	-0.00640869	
-0.275269	-0.0050354	
-0.272522	-0.00259399	
-0.272827	-0.00137329	
-0.271912	0.000610352	
-0.271301	0.00320435	
-0.270691	0.00534058	
-0.269165	0.00610352	
-0.26825	0.00808716	
-0.267029	0.0108337	
-0.267029	0.0126648	
-0.267639	0.0140381	
-0.267944	0.0108337	
-0.267334	0.00640869	
-0.267639	0.00579834	
-0.269775	0.00534058	
-0.271606	0.00564575	
-0.272217	0.00823975	
-0.272217	0.0100708	
-0.271606	0.012207	
-0.271912	0.0128174	
-0.272217	0.0140381	
-0.274963	0.0175476	
-0.272217	0.0192261	
-0.272217	0.0201416	
-0.271912	0.0219727	
-0.271912	0.0209045	
-0.272217	0.020752	
-0.272217	0.0224304	
-0.271912	0.0228882	
-0.274353	0.0250244	
-0.273438	0.025177	
-0.271912	0.0256348	
-0.272827	0.0289917	
-0.271912	0.0318909	
-0.274963	0.0323486	
-0.274658	0.0300598	
-0.277405	0.0283813	
-0.278015	0.0292969	
-0.275574	0.0320435	
-0.274963	0.0360107	
-0.272827	0.0369263	
-0.272217	0.0334167	
-0.272217	0.0341797	
-0.271606	0.0350952	
-0.272827	0.0370789	
-0.270081	0.0378418	
-0.267944	0.0398254	
-0.264893	0.0413513	
-0.262451	0.0421143	
-0.260315	0.0444031	
-0.257263	0.0444031	
-0.255432	0.0445557	
-0.25238	0.0460815	
-0.252075	0.0463867	
-0.247803	0.0447083	
-0.247498	0.0460815	
-0.247803	0.0469971	
-0.247803	0.0468445	
-0.24353	0.045166	
-0.245972	0.0442505	
-0.247192	0.0463867	
-0.247498	0.0497437	
-0.247803	0.0520325	
-0.248108	0.0543213	
-0.247803	0.0567627	
-0.249634	0.0590515	
-0.250549	0.0592041	
-0.252991	0.0608826	
-0.252075	0.0611877	
-0.252991	0.0596619	
-0.253296	0.0590515	
-0.257263	0.0605774	
-0.255432	0.0619507	
-0.257568	0.0617981	
-0.257568	0.0628662	
-0.261536	0.0660706	
-0.262756	0.0704956	
-0.266724	0.071106	
-0.267029	0.0689697	
-0.271301	0.0672913	
-0.272522	0.0708008	
-0.274658	0.0749207	
-0.276184	0.0788879	
-0.277405	0.0822449	
-0.277405	0.080719	
-0.2771	0.0787354	
-0.277405	0.0808716	
-0.2771	0.0839233	
-0.278015	0.0875854	
-0.275574	0.0909424	
-0.271912	0.0933838	
-0.272217	0.0942993	
-0.270081	0.0942993	
-0.267944	0.09552	
-0.267639	0.0933838	
-0.265198	0.0935364	
-0.262756	0.0953674	
-0.26062	0.0979614	
-0.259705	0.101013	
-0.257568	0.103149	
-0.255127	0.103302	
-0.252686	0.103607	
-0.252686	0.105743	
-0.247803	0.107727	
-0.249329	0.107727	
-0.248108	0.108032	
-0.245361	0.108032	
-0.243225	0.10849	
-0.245056	0.110168	
-0.24353	0.110016	
-0.24292	0.108337	
-0.242615	0.107574	
-0.24292	0.105743	
-0.242615	0.105133	
-0.24292	0.103149	
-0.243225	0.105133	
-0.243225	0.106354	
-0.24231	0.105896	
-0.24353	0.105743	
-0.242615	0.105743	
-0.24353	0.106964	
-0.24292	0.106354	
-0.24231	0.107574	
-0.24292	0.105591	
-0.245056	0.105896	
-0.245361	0.105743	
-0.247192	0.105438	
-0.247803	0.102997	
-0.247498	0.100555	
-0.247803	0.0982666	
-0.247192	0.0971985	
-0.247498	0.0941467	
-0.247192	0.0932312	
-0.252075	0.0894165	
-0.252686	0.087738	
-0.252075	0.0843811	
-0.252686	0.0790405	
-0.252991	0.0762939	
-0.25238	0.0741577	
-0.250854	0.0723267	
-0.247803	0.0683594	
-0.247803	0.0648499	
-0.247498	0.0613403	
-0.24353	0.057373	
-0.240479	0.0546265	
-0.235596	0.0558472	
-0.231323	0.0546265	
-0.226746	0.04776	
-0.218811	0.0401306	
-0.212097	0.0315857	
-0.202942	0.0239563	
-0.192261	0.0198364	
-0.1828	0.0137329	
-0.173035	0.00946045	
-0.159302	0.00640869	
-0.146484	0.00152588	
-0.1297	-0.00305176	
-0.114441	-0.00610352	
-0.0973511	-0.00976563	
-0.0762939	-0.0157166	
-0.0549316	-0.0228882	
-0.0317383	-0.0256348	
-0.00793457	-0.0276184	
0.0164795	-0.0300598	
0.0411987	-0.0286865	
0.0701904	-0.0286865	
0.0994873	-0.0332642	
0.131226	-0.0375366	
0.161438	-0.0402832	
0.194702	-0.045166	
0.229187	-0.0483704	
0.261536	-0.0506592	
0.297241	-0.0511169	
0.335999	-0.0549316	
0.371094	-0.0598145	
0.408936	-0.0605774	
0.450745	-0.0611877	
0.490112	-0.0630188	
0.532532	-0.0646973	
0.571594	-0.0656128	
0.614929	-0.0657654	
0.655518	-0.0660706	
0.700684	-0.0675964	
0.743713	-0.0679016	
0.787354	-0.067749	
0.829468	-0.0680542	
0.873413	-0.0704956	
0.915222	-0.072937	
0.958862	-0.072937	
1.00128	-0.0750732	
1.04248	-0.0752258	
1.08459	-0.0764465	
1.1264	-0.0752258	
1.16577	-0.0775146	
1.20575	-0.0776672	
1.24451	-0.0778198	
1.28174	-0.0761414	
1.31775	-0.0750732	
1.35498	-0.0732422	
1.38947	-0.0752258	
1.4267	-0.0752258	
1.45874	-0.0733948	
1.4917	-0.0750732	
1.52252	-0.0737	
1.55334	-0.0726318	
1.58173	-0.0704956	
1.60736	-0.0679016	
1.63574	-0.0663757	
1.66107	-0.0660706	
1.68304	-0.0637817	
1.70715	-0.0650024	
1.72668	-0.0675964	
1.7453	-0.0679016	
1.763	-0.067749	
1.77795	-0.0675964	
1.79077	-0.0662231	
1.8045	-0.0668335	
1.81458	-0.0656128	
1.82373	-0.0654602	
1.8338	-0.065155	
1.84021	-0.0637817	
1.84692	-0.0613403	
1.85028	-0.0605774	
1.85303	-0.0621033	
1.85455	-0.0627136	
1.8573	-0.0608826	
1.85577	-0.0585938	
1.85211	-0.0544739	
1.85242	-0.0527954	
1.84662	-0.0532532	
1.84082	-0.0517273	
1.83319	-0.0532532	
1.82373	-0.0534058	
1.81274	-0.0553894	
1.80237	-0.0541687	
1.79291	-0.0534058	
1.7807	-0.0532532	
1.76453	-0.0572205	
1.74866	-0.0601196	
1.73431	-0.058136	
1.71783	-0.0540161	
1.70227	-0.0488281	
1.68274	-0.0460815	
1.66534	-0.0471497	
1.64856	-0.0471497	
1.62933	-0.0457764	
1.6098	-0.0460815	
1.58997	-0.0456238	
1.5686	-0.0454712	
1.54602	-0.0454712	
1.52618	-0.0457764	
1.50208	-0.0440979	
1.47797	-0.0422668	
1.45325	-0.0436401	
1.42822	-0.0456238	
1.40686	-0.0453186	
1.38184	-0.0436401	
1.35681	-0.0431824	
1.3324	-0.0411987	
1.30615	-0.040741	
1.28357	-0.0393677	
1.25732	-0.0410461	
1.23169	-0.0428772	
1.20758	-0.0408936	
1.18347	-0.040741	
1.16089	-0.0410461	
1.13434	-0.0404358	
1.10992	-0.0387573	
1.08704	-0.040741	
1.06323	-0.042572	
1.04187	-0.0408936	
1.01868	-0.0389099	
0.996399	-0.0367737	
0.971985	-0.0344849	
0.949402	-0.0350952	
0.927734	-0.0372314	
0.907593	-0.0364685	
0.88562	-0.037384	
0.863647	-0.0367737	
0.844116	-0.0341797	
0.824585	-0.0312805	
0.80719	-0.0352478	
0.785522	-0.0378418	
0.769348	-0.0379944	
0.747986	-0.0358582	
0.731201	-0.0337219	
0.71106	-0.0314331	
0.691528	-0.0314331	
0.671997	-0.0314331	
0.657043	-0.0308228	
0.637817	-0.0291443	
0.620117	-0.0308228	
0.605164	-0.0308228	
0.587769	-0.0288391	
0.572815	-0.0302124	
0.558167	-0.0326538	
0.543518	-0.0317383	
0.527344	-0.0328064	
0.51178	-0.0337219	
0.4953	-0.0335693	
0.480347	-0.0328064	
0.465088	-0.0317383	
0.450134	-0.0296021	
0.435486	-0.0283813	
0.422668	-0.0285339	
0.409241	-0.0265503	
0.396118	-0.0260925	
0.384216	-0.0262451	
0.369568	-0.0259399	
0.359802	-0.0239563	
0.34729	-0.0257874	
0.335388	-0.0262451	
0.325317	-0.0247192	
0.315247	-0.0259399	
0.305176	-0.0280762	
0.295105	-0.0288391	
0.285339	-0.0292969	
0.275879	-0.0270081	
0.26825	-0.0263977	
0.26062	-0.0247192	
0.253601	-0.0239563	
0.245972	-0.025177	
0.236206	-0.0241089	
0.231018	-0.0234985	
0.223694	-0.0241089	
0.217285	-0.0263977	
0.210876	-0.0259399	
0.206299	-0.0262451	
0.199585	-0.0257874	
0.192261	-0.0239563	
0.187073	-0.0238037	
0.181274	-0.0241089	
0.176392	-0.0262451	
0.169983	-0.0260925	
0.164795	-0.0263977	
0.161743	-0.0263977	
0.155334	-0.0280762	
0.152283	-0.0305176	
0.145264	-0.0292969	
0.140381	-0.0285339	
0.134888	-0.0283813	
0.128784	-0.0282288	
0.123291	-0.0259399	
0.119934	-0.0263977	
0.117798	-0.0282288	
0.11322	-0.0244141	
0.110168	-0.0218201	
0.105591	-0.0192261	
0.102844	-0.0205994	
0.101013	-0.0227356	
0.0961304	-0.0253296	
0.0946045	-0.0280762	
0.0909424	-0.0285339	
0.090332	-0.0302124	
0.0863647	-0.0311279	
0.0857544	-0.0309753	
0.0808716	-0.0288391	
0.0784302	-0.0286865	
0.0759888	-0.0312805	
0.0762939	-0.0334167	
0.0762939	-0.0334167	
0.0723267	-0.0312805	
0.071106	-0.0306702	
0.071106	-0.0288391	
0.071106	-0.0286865	
0.0720215	-0.0270081	
0.0665283	-0.0262451	
0.0665283	-0.0257874	
0.065918	-0.0256348	
0.0665283	-0.0257874	
0.0643921	-0.0280762	
0.0613403	-0.0285339	
0.0610352	-0.0288391	
0.0595093	-0.0289917	
0.0585938	-0.0328064	
0.0564575	-0.035553	
0.0567627	-0.0361633	
0.0524902	-0.0340271	
0.0515747	-0.0311279	
0.0494385	-0.0274658	
0.0466919	-0.030365	
0.0424194	-0.0328064	
0.0418091	-0.0335693	
0.0372314	-0.0314331	
0.0366211	-0.0308228	
0.0350952	-0.0311279	
0.0311279	-0.0305176	
0.0268555	-0.0260925	
0.0250244	-0.0241089	
0.022583	-0.0265503	
0.0183105	-0.0285339	
0.017395	-0.0283813	
0.0125122	-0.0285339	
0.00762939	-0.0306702	
0.00488281	-0.0352478	
0.00244141	-0.0396729	
0.000305176	-0.0392151	
-0.00213623	-0.0366211	
-0.00274658	-0.0357056	
-0.00518799	-0.0360107	
-0.00732422	-0.0360107	
-0.00732422	-0.0335693	
-0.00762939	-0.0326538	
-0.00976563	-0.0331116	
-0.012207	-0.0341797	
-0.012207	-0.0363159	
-0.0119019	-0.0379944	
-0.012207	-0.0375366	
-0.00854492	-0.0320435	
-0.00732422	-0.0289917	
-0.00793457	-0.0286865	
-0.00732422	-0.0325012	
-0.00732422	-0.0354004	
-0.00366211	-0.0379944	
-0.00488281	-0.0384521	
-0.00579834	-0.0382996	
-0.00671387	-0.0364685	
-0.00701904	-0.0379944	
-0.00946045	-0.0358582	
-0.0119019	-0.032196	
-0.012207	-0.0315857	
-0.0143433	-0.0350952	
-0.0170898	-0.0357056	
-0.0192261	-0.037384	
-0.0222778	-0.0361633	
-0.0219727	-0.035553	
-0.0241089	-0.0334167	
-0.0271606	-0.0292969	
-0.0274658	-0.0286865	
-0.0268555	-0.0288391	
-0.0311279	-0.0328064	
-0.0314331	-0.0361633	
-0.0326538	-0.0384521	
-0.0320435	-0.039978	
-0.0357056	-0.0427246	
-0.0375366	-0.0436401	
-0.0372314	-0.040741	
-0.0408936	-0.0382996	
-0.0424194	-0.0344849	
-0.0418091	-0.0334167	
-0.0445557	-0.0337219	
-0.0460815	-0.0323486	
-0.0509644	-0.0335693	
-0.0515747	-0.0334167	
-0.0518799	-0.0334167	
-0.0518799	-0.0335693	
-0.0524902	-0.0354004	
-0.055542	-0.0341797	
-0.0561523	-0.0311279	
-0.0564575	-0.0312805	
-0.0561523	-0.0354004	
-0.0561523	-0.0378418	
-0.0570679	-0.0404358	
-0.0558472	-0.0408936	
-0.0592041	-0.040741	
-0.0616455	-0.0367737	
-0.057373	-0.0360107	
-0.06073	-0.0346375	
-0.0613403	-0.0332642	
-0.0613403	-0.032959	
-0.0619507	-0.0332642	
-0.0588989	-0.0334167	
-0.0588989	-0.0341797	
-0.0610352	-0.0361633	
-0.0595093	-0.0382996	
-0.0564575	-0.0378418	
-0.0582886	-0.0363159	
-0.0567627	-0.0360107	
-0.0570679	-0.0361633	
-0.0561523	-0.0361633	
-0.0564575	-0.0364685	
-0.0564575	-0.038147	
-0.0564575	-0.0386047	
-0.0561523	-0.0370789	
-0.0561523	-0.0343323	
-0.0549316	-0.0352478	
-0.0524902	-0.0363159	
-0.0543213	-0.0357056	
-0.0540161	-0.0338745	
-0.0546265	-0.035553	
-0.0521851	-0.0384521	
-0.0521851	-0.0389099	
-0.0521851	-0.0340271	
-0.0515747	-0.0311279	
-0.0515747	-0.0326538	
-0.0515747	-0.0335693	
-0.0540161	-0.0334167	
-0.0546265	-0.0352478	
-0.055542	-0.0358582	
-0.0564575	-0.0338745	
-0.0564575	-0.0375366	
-0.0564575	-0.0382996	
-0.0567627	-0.0378418	
-0.0564575	-0.0361633	
-0.0592041	-0.0361633	
-0.06073	-0.0358582	
-0.0598145	-0.0360107	
-0.0604248	-0.0360107	
-0.0616455	-0.0363159	
-0.0616455	-0.0364685	
-0.0616455	-0.0360107	
-0.0613403	-0.0361633	
-0.0613403	-0.0376892	
-0.0656128	-0.0382996	
-0.0646973	-0.0378418	
-0.0640869	-0.0402832	
-0.0650024	-0.0415039	
-0.0665283	-0.0402832	
-0.065918	-0.0363159	
-0.0662231	-0.0360107	
-0.0662231	-0.0360107	
-0.0671387	-0.038147	
-0.0643921	-0.0382996	
-0.0662231	-0.0387573	
-0.0622559	-0.0404358	
-0.0613403	-0.0384521	
-0.0643921	-0.0343323	
-0.0640869	-0.0332642	
-0.0668335	-0.032959	
-0.0665283	-0.0352478	
-0.0668335	-0.0361633	
-0.0686646	-0.0384521	
-0.071106	-0.0389099	
-0.0714111	-0.0382996	
-0.0717163	-0.0357056	
-0.0738525	-0.0338745	
-0.0738525	-0.0332642	
-0.0765991	-0.0341797	
-0.0762939	-0.0375366	
-0.0787354	-0.0367737	
-0.0808716	-0.0363159	
-0.0808716	-0.0361633	
-0.0805664	-0.0363159	
-0.0808716	-0.0386047	
-0.0808716	-0.0386047	
-0.0808716	-0.037384	
-0.083313	-0.03479	
-0.0860596	-0.0360107	
-0.0854492	-0.0402832	
-0.0860596	-0.0428772	
-0.0854492	-0.0442505	
-0.0888062	-0.0411987	
-0.088501	-0.0404358	
-0.0909424	-0.038147	
-0.0909424	-0.0360107	
-0.0909424	-0.0361633	
-0.0930786	-0.0341797	
-0.0946045	-0.0337219	
-0.0976563	-0.0352478	
-0.100098	-0.0375366	
-0.101013	-0.039978	
-0.102234	-0.0390625	
-0.106201	-0.0382996	
-0.108948	-0.0390625	
-0.110168	-0.0410461	
-0.112305	-0.0410461	
-0.115356	-0.0405884	
-0.119324	-0.0386047	
-0.12085	-0.040741	
-0.12085	-0.0411987	
-0.12207	-0.0408936	
-0.125122	-0.040741	
-0.125122	-0.0428772	
-0.125122	-0.0390625	
-0.1297	-0.0363159	
-0.130005	-0.0338745	
-0.1297	-0.0331116	
-0.132141	-0.0312805	
-0.135193	-0.0308228	
-0.134583	-0.0331116	
-0.134583	-0.0361633	
-0.138855	-0.038147	
-0.139465	-0.0389099	
-0.139771	-0.042572	
-0.139771	-0.045929	
-0.143433	-0.0457764	
-0.144958	-0.045929	
-0.147095	-0.0439453	
-0.145569	-0.0396729	
-0.146484	-0.040741	
-0.14801	-0.0410461	
-0.149231	-0.040741	
-0.149841	-0.0408936	
-0.149536	-0.0393677	
-0.149536	-0.0379944	
-0.149231	-0.038147	
-0.154419	-0.0427246	
-0.154724	-0.043335	
-0.155029	-0.0415039	
-0.159302	-0.0392151	
-0.159912	-0.0382996	
-0.162048	-0.0358582	
-0.163574	-0.0360107	
-0.168457	-0.0361633	
-0.171509	-0.0390625	
-0.175781	-0.0434875	
-0.177002	-0.0476074	
-0.18158	-0.0485229	
-0.183716	-0.0462341	
-0.185852	-0.0416565	
-0.19104	-0.0395203	
-0.192871	-0.040741	
-0.198059	-0.0408936	
-0.198364	-0.0405884	
-0.202942	-0.0387573	
-0.206299	-0.0389099	
-0.210571	-0.0390625	
-0.213623	-0.0408936	
-0.213928	-0.0408936	
-0.213623	-0.0382996	
-0.213318	-0.0386047	
-0.221558	-0.0411987	
-0.232849	-0.0450134	
-0.237732	-0.0460815	
-0.238037	-0.0480652	
-0.240479	-0.0480652	
-0.24231	-0.0483704	
-0.245056	-0.0465393	
-0.247803	-0.0453186	
-0.249939	-0.0437927	
-0.25238	-0.0448608	
-0.25238	-0.045166	
-0.257263	-0.0457764	
-0.257568	-0.0434875	
-0.257874	-0.0415039	
-0.257568	-0.0390625	
-0.259705	-0.0369263	
-0.262451	-0.0360107	
-0.262756	-0.0378418	
-0.262451	-0.0382996	
-0.262756	-0.040741	
-0.265198	-0.0404358	
-0.267334	-0.0431824	
-0.267334	-0.0453186	
-0.264893	-0.045166	
-0.267334	-0.0437927	
-0.267334	-0.0447083	
-0.267639	-0.0476074	
-0.267334	-0.0485229	
-0.271301	-0.0483704	
-0.272522	-0.0483704	
-0.272217	-0.0462341	
-0.271606	-0.043335	
-0.272522	-0.0411987	
-0.271912	-0.0408936	
-0.274353	-0.0411987	
-0.272522	-0.0411987	
-0.274963	-0.0395203	
-0.2771	-0.0408936	
-0.2771	-0.042572	
-0.2771	-0.0448608	
-0.2771	-0.0454712	
-0.277405	-0.0436401	
-0.277405	-0.043335	
-0.277405	-0.043335	
-0.2771	-0.0431824	
-0.2771	-0.0450134	
-0.2771	-0.0460815	
-0.275269	-0.0457764	
-0.276184	-0.0476074	
-0.2771	-0.0482178	
-0.277405	-0.045929	
-0.277405	-0.045929	
-0.2771	-0.0442505	
-0.277405	-0.0431824	
-0.278015	-0.0428772	
-0.2771	-0.0408936	
-0.275269	-0.042572	
-0.277405	-0.043335	
-0.27771	-0.0440979	
-0.277405	-0.0437927	
-0.275269	-0.0416565	
-0.275879	-0.042572	
-0.277405	-0.043335	
-0.2771	-0.0430298	
-0.275269	-0.0437927	
-0.2771	-0.0457764	
-0.274963	-0.04776	
-0.274963	-0.0483704	
-0.2771	-0.0485229	
-0.277405	-0.0506592	
-0.278015	-0.0506592	
-0.27771	-0.0508118	
-0.2771	-0.0485229	
-0.277405	-0.0457764	
-0.277405	-0.0439453	
-0.2771	-0.0440979	
-0.280151	-0.043335	
-0.282898	-0.0428772	
-0.282288	-0.043335	
-0.282288	-0.0453186	
-0.282593	-0.0454712	
-0.282288	-0.043335	
-0.282288	-0.0431824	
-0.27771	-0.0431824	
-0.279541	-0.0393677	
-0.277405	-0.0367737	
-0.27771	-0.0334167	
-0.277405	-0.0309753	
-0.274963	-0.0288391	
-0.274963	-0.025177	
-0.272827	-0.0236511	
-0.272217	-0.0213623	
-0.26947	-0.0231934	
-0.271606	-0.0222778	
-0.267639	-0.0216675	
-0.267639	-0.0195313	
-0.267639	-0.0190735	
-0.267639	-0.0187683	
-0.265503	-0.0202942	
-0.267334	-0.0190735	
-0.263062	-0.0170898	
-0.262146	-0.0166321	
-0.261841	-0.0169373	
-0.262146	-0.0151062	
-0.263062	-0.0161743	
-0.260925	-0.018158	
-0.257568	-0.0190735	
-0.257263	-0.0172424	
-0.257568	-0.0149536	
-0.257263	-0.0137329	
-0.255127	-0.012207	
-0.253296	-0.00747681	
-0.252686	-0.00183105	
-0.254822	0.00274658	
-0.252991	0.00732422	
-0.25238	0.00854492	
-0.253296	0.0123596	
-0.252991	0.0151062	
-0.252075	0.0196838	
-0.25177	0.0245667	
-0.25238	0.0273132	
-0.256653	0.0254822	
-0.252991	0.0257874	
-0.252991	0.0276184	
-0.25238	0.0274658	
-0.252991	0.0294495	
-0.252686	0.0360107	
-0.252991	0.0401306	
-0.250549	0.0419617	
-0.247803	0.0422668	
-0.250244	0.0445557	
-0.250244	0.0442505	
-0.247803	0.0405884	
-0.247192	0.037384	
-0.248718	0.0350952	
-0.247498	0.0370789	
-0.247803	0.0431824	
-0.24353	0.0482178	
-0.245056	0.0498962	
-0.242615	0.0517273	
-0.24292	0.0521851	
-0.242615	0.0479126	
-0.242615	0.0369263	
-0.240479	0.0279236	
-0.241089	0.0210571	
-0.240479	0.0141907	
-0.240784	0.00686646	
-0.238342	0	
-0.238037	-0.00396729	
-0.238342	-0.00823975	
-0.238342	-0.00900269	
-0.238342	-0.00717163	
-0.238647	-0.00488281	
-0.238037	-0.00427246	
-0.238037	-0.00442505	
-0.238037	-0.00610352	
-0.238037	-0.0112915	
-0.238037	-0.0178528	
-0.240479	-0.020752	
-0.243225	-0.0230408	
-0.24231	-0.0239563	
-0.24292	-0.0256348	
-0.245056	-0.0265503	
-0.24353	-0.0286865	
-0.243225	-0.0331116	
-0.245056	-0.0376892	
-0.247498	-0.0405884	
-0.248108	-0.0453186	
-0.249939	-0.0506592	
-0.250549	-0.0593567	
-0.252686	-0.0654602	
-0.252686	-0.0697327	
-0.254517	-0.0730896	
-0.252991	-0.0752258	
-0.257263	-0.0770569	
-0.256958	-0.0752258	
-0.257874	-0.0770569	
-0.26123	-0.0791931	
-0.26062	-0.0798035	
-0.261536	-0.0776672	
-0.262451	-0.0776672	
-0.262451	-0.0761414	
-0.266724	-0.0747681	
-0.267334	-0.072937	
-0.267029	-0.0747681	
-0.267334	-0.0753784	
-0.269165	-0.0775146	
-0.271301	-0.0776672	
-0.274963	-0.0773621	
-0.277405	-0.0753784	
-0.2771	-0.0737	
-0.277405	-0.0732422	
-0.279236	-0.0726318	
-0.281372	-0.0709534	
-0.281982	-0.0724792	
-0.286865	-0.0726318	
-0.28717	-0.0700378	
-0.286865	-0.0679016	
-0.289307	-0.0657654	
-0.291748	-0.0680542	
-0.292053	-0.0695801	
-0.291443	-0.0704956	
-0.292358	-0.0704956	
-0.293884	-0.0721741	
-0.296021	-0.0746155	
-0.297241	-0.0749207	
-0.297241	-0.0769043	
-0.296936	-0.0776672	
-0.29541	-0.078125	
-0.292053	-0.0782776	
-0.291748	-0.0779724	
-0.292358	-0.0759888	
-0.288086	-0.0737	
-0.28717	-0.0726318	
-0.284729	-0.0727844	
-0.284424	-0.0727844	
-0.282288	-0.0692749	
-0.281982	-0.0662231	
-0.282593	-0.0646973	
-0.281677	-0.0657654	
-0.282593	-0.0692749	
-0.281982	-0.0698853	
-0.282898	-0.0680542	
-0.281982	-0.0679016	
-0.282898	-0.0695801	
-0.282288	-0.0717163	
-0.285339	-0.0704956	
-0.284424	-0.0700378	
-0.282593	-0.0701904	
-0.281982	-0.0706482	
-0.281372	-0.068512	
-0.282898	-0.0657654	
-0.281982	-0.0654602	
-0.282593	-0.0654602	
-0.27771	-0.0634766	
-0.274963	-0.0590515	
-0.271606	-0.0584412	
-0.267944	-0.06073	
-0.264587	-0.0630188	
-0.263062	-0.0631714	
-0.260315	-0.0624084	
-0.255737	-0.0611877	
-0.252686	-0.0622559	
-0.252686	-0.06073	
-0.248718	-0.0624084	
-0.248108	-0.0650024	
-0.247498	-0.0679016	
-0.248108	-0.0675964	
-0.247498	-0.0653076	
-0.247803	-0.0610352	
-0.252075	-0.0564575	
-0.250244	-0.0520325	
-0.25238	-0.0444031	
-0.252686	-0.0361633	
-0.254822	-0.0292969	
-0.257263	-0.0175476	
-0.257263	-0.00534058	
-0.257568	0.00671387	
-0.258179	0.0144958	
-0.26123	0.018158	
-0.262451	0.0198364	
-0.266113	0.0195313	
-0.267334	0.0204468	
-0.269775	0.0204468	
-0.272217	0.0247192	
-0.275269	0.032196	
-0.277405	0.0390625	
-0.277405	0.0454712	
-0.281677	0.0532532	
-0.282593	0.063324	
-0.284119	0.0794983	
-0.28717	0.0958252	
-0.28717	0.106354	
-0.291138	0.112152	
-0.292664	0.117493	
-0.296326	0.132751	
-0.297546	0.163116	
-0.296936	0.198822	
-0.299683	0.237579	
-0.300598	0.281372	
-0.301819	0.321198	
-0.301819	0.355988	
-0.301819	0.39032	
-0.306091	0.418091	
-0.306702	0.436249	
-0.306396	0.444946	
-0.306702	0.457153	
-0.306702	0.476379	
-0.306702	0.496674	
-0.304871	0.505829	
-0.307007	0.498199	
-0.304565	0.475311	
-0.303955	0.442505	
-0.302734	0.407715	
-0.301819	0.358582	
-0.299683	0.29007	
-0.296936	0.215149	
-0.296936	0.147858	
-0.292358	0.098877	
-0.292053	0.0672913	
-0.287781	0.0508118	
-0.287476	0.0447083	
-0.285645	0.0489807	
-0.281982	0.055542	
-0.279846	0.0502014	
-0.277405	0.0350952	
-0.279541	0.0198364	
-0.27771	0.0135803	
-0.277405	0.00595093	
-0.2771	-0.00808716	
-0.2771	-0.0239563	
-0.277405	-0.045929	
-0.279236	-0.0785828	
-0.281982	-0.121918	
-0.281372	-0.163422	
-0.282593	-0.189362	
-0.28595	-0.192261	
-0.289612	-0.177307	
-0.288086	-0.155334	
-0.291138	-0.132599	
-0.292053	-0.112152	
-0.292053	-0.0982666	
-0.296326	-0.0862122	
-0.296631	-0.0743103	
-0.297241	-0.0643921	
-0.296631	-0.0585938	
-0.297241	-0.0556946	
-0.299683	-0.0572205	
-0.301208	-0.0602722	
-0.301514	-0.0650024	
-0.304871	-0.0723267	
-0.304565	-0.0770569	
-0.304871	-0.0798035	
-0.305786	-0.0804138	
-0.306702	-0.0823975	
-0.306702	-0.0828552	
-0.308533	-0.0846863	
-0.311584	-0.083313	
-0.310974	-0.0823975	
-0.311584	-0.0843811	
-0.312195	-0.0849915	
-0.31189	-0.0823975	
-0.311584	-0.0808716	
-0.31189	-0.0820923	
-0.31189	-0.08255	
-0.311279	-0.0827026	
-0.310974	-0.0808716	
-0.312195	-0.0799561	
-0.311584	-0.0778198	
-0.312195	-0.0776672	
-0.311279	-0.0772095	
-0.311584	-0.0772095	
-0.311584	-0.0756836	
-0.311279	-0.0732422	
-0.311584	-0.0691223	
-0.311279	-0.0680542	
-0.311279	-0.0679016	
-0.314331	-0.067749	
-0.314331	-0.0660706	
-0.314026	-0.0610352	
-0.317078	-0.0602722	
-0.316772	-0.0602722	
-0.316467	-0.0595093	
-0.316772	-0.0585938	
-0.320435	-0.0587463	
-0.32135	-0.0622559	
-0.32135	-0.0631714	
-0.325317	-0.0628662	
-0.326233	-0.0630188	
-0.328369	-0.0608826	
-0.330811	-0.058136	
-0.331421	-0.0553894	
-0.331116	-0.0531006	
-0.331421	-0.0515747	
-0.335388	-0.0491333	
-0.335999	-0.0485229	
-0.335999	-0.0479126	
-0.336609	-0.0454712	
-0.335693	-0.0436401	
-0.336609	-0.0436401	
-0.335999	-0.0434875	
-0.336609	-0.043335	
-0.335999	-0.045166	
-0.335999	-0.0480652	
-0.336609	-0.0486755	
-0.335999	-0.0466919	
-0.335999	-0.0454712	
-0.336609	-0.0436401	
-0.332031	-0.0418091	
-0.330811	-0.0393677	
-0.331116	-0.0366211	
-0.329285	-0.0344849	
-0.326843	-0.0335693	
-0.326233	-0.0332642	
-0.324097	-0.03479	
-0.323792	-0.0340271	
-0.32135	-0.0312805	
-0.319519	-0.0271606	
-0.318909	-0.0262451	
-0.316772	-0.0262451	
-0.316772	-0.0305176	
-0.314941	-0.03479	
-0.314026	-0.0335693	
-0.311279	-0.0352478	
-0.31189	-0.0341797	
-0.31189	-0.0314331	
-0.311279	-0.0286865	
-0.31189	-0.0289917	
-0.311584	-0.0309753	
-0.31189	-0.0306702	
-0.31189	-0.0282288	
-0.311279	-0.0244141	
-0.31189	-0.0234985	
-0.3125	-0.0238037	
-0.313416	-0.025177	
-0.31189	-0.0238037	
-0.311584	-0.0218201	
-0.311584	-0.018158	
-0.315857	-0.01297	
-0.317078	-0.0102234	
-0.316772	-0.0115967	
-0.316467	-0.0157166	
-0.316467	-0.0190735	
-0.316162	-0.0212097	
-0.315857	-0.0213623	
-0.316467	-0.0193787	
-0.316467	-0.0161743	
-0.315857	-0.0137329	
-0.316162	-0.00976563	
-0.316772	-0.00930786	
-0.316772	-0.00778198	
-0.316772	-0.00732422	
-0.316467	-0.00656128	
-0.318909	-0.00457764	
-0.316467	-0.000762939	
-0.318604	0.000152588	
-0.318298	-0.000915527	
-0.318298	-0.00335693	
-0.318909	-0.00366211	
-0.319519	-0.00198364	
-0.32135	-0.000457764	
-0.32135	0.00106812	
-0.321655	0.00411987	
-0.322266	0.00473022	
-0.319519	0.00549316	
-0.32196	0.00686646	
-0.321045	0.00610352	
-0.32135	0.00366211	
-0.32074	0.00289917	
-0.323486	0.00335693	
-0.326843	0.00747681	
-0.326538	0.00946045	
-0.326538	0.0123596	
-0.326233	0.0131226	
-0.326538	0.01297	
-0.326233	0.0126648	
-0.327148	0.0128174	
-0.326538	0.0128174	
-0.325928	0.0140381	
-0.326233	0.0143433	
-0.325317	0.0146484	
-0.326233	0.0169373	
-0.326538	0.0212097	
-0.326538	0.0222778	
-0.326843	0.019989	
-0.326843	0.0161743	
-0.326233	0.0157166	
-0.326233	0.0178528	
-0.326538	0.0201416	
-0.324402	0.0219727	
-0.32135	0.0247192	
-0.324097	0.0276184	
-0.321655	0.0320435	
-0.32135	0.0346375	
-0.32135	0.0320435	
-0.32135	0.0300598	
-0.32196	0.0305176	
-0.319824	0.0328064	
-0.315857	0.0366211	
-0.316467	0.0390625	
-0.316467	0.0401306	
-0.316162	0.0421143	
-0.316467	0.0448608	
-0.316772	0.0466919	
-0.318909	0.0465393	
-0.319519	0.0440979	
-0.321655	0.0419617	
-0.325317	0.0418091	
-0.330505	0.0436401	
-0.334167	0.0466919	
-0.33844	0.0497437	
-0.33905	0.0521851	
-0.343628	0.0527954	
-0.350342	0.0544739	
-0.350952	0.0584412	
-0.357971	0.0592041	
-0.363159	0.0590515	
-0.367737	0.0592041	
-0.370178	0.0619507	
-0.374756	0.0639343	
-0.380249	0.0663757	
-0.385437	0.0668335	
-0.389099	0.0691223	
-0.392761	0.0712585	
-0.394897	0.0714111	
-0.399475	0.0692749	
-0.399475	0.0663757	
-0.403748	0.0688171	
-0.404968	0.0715637	
-0.404053	0.0714111	
-0.409546	0.0692749	
-0.410156	0.0692749	
-0.409241	0.0730896	
-0.409546	0.0759888	
-0.411682	0.0787354	
-0.412292	0.0784302	
-0.411987	0.0761414	
-0.414429	0.0737	
-0.415039	0.0756836	
-0.414734	0.0785828	
-0.414734	0.0790405	
-0.417175	0.0788879	
-0.414734	0.0764465	
-0.414429	0.0744629	
-0.414734	0.0737	
-0.415039	0.0738525	
-0.414429	0.0756836	
-0.410156	0.0758362	
-0.409546	0.0758362	
-0.409851	0.0720215	
-0.410156	0.0691223	
-0.404968	0.0689697	
-0.404358	0.0692749	
-0.404968	0.0714111	
-0.401001	0.0718689	
-0.399475	0.0694275	
-0.397949	0.0691223	
-0.395508	0.0686646	
-0.393372	0.0636292	
-0.390015	0.0578308	
-0.386353	0.0550842	
-0.38147	0.0543213	
-0.378723	0.0521851	
-0.368958	0.0491333	
-0.363159	0.0466919	
-0.359192	0.0460815	
-0.349121	0.0454712	
-0.344238	0.0428772	
-0.334778	0.0405884	
-0.325012	0.0379944	
-0.313416	0.0358582	
-0.301514	0.0328064	
-0.290833	0.0282288	
-0.279236	0.0256348	
-0.262146	0.0224304	
-0.244141	0.0186157	
-0.230408	0.0158691	
-0.213318	0.0134277	
-0.193787	0.00701904	
-0.170898	0.0012207	
-0.149536	-0.0038147	
-0.123291	-0.00869751	
-0.100708	-0.0157166	
-0.0717163	-0.0209045	
-0.0427246	-0.0254822	
-0.0134277	-0.0306702	
0.0164795	-0.0332642	
0.050354	-0.0340271	
0.0839233	-0.0361633	
0.12085	-0.0361633	
0.15625	-0.0382996	
0.194397	-0.0382996	
0.23407	-0.0421143	
0.273438	-0.0453186	
0.314026	-0.0495911	
0.358276	-0.0524902	
0.401001	-0.0534058	
0.447083	-0.0572205	
0.491028	-0.0624084	
0.539856	-0.0656128	
0.583801	-0.0671387	
0.63324	-0.070343	
0.677795	-0.0743103	
0.726624	-0.0750732	
0.774841	-0.075531	
0.82428	-0.0796509	
0.870972	-0.08255	
0.917358	-0.0836182	
0.966797	-0.0869751	
1.01563	-0.0895691	
1.06049	-0.0895691	
1.10931	-0.0878906	
1.15417	-0.0891113	
1.19995	-0.0872803	
1.24481	-0.0868225	
1.28876	-0.0866699	
1.33301	-0.0891113	
1.37238	-0.0897217	
1.41663	-0.0892639	
1.4566	-0.0872803	
1.49506	-0.0868225	
1.53503	-0.0891113	
1.56982	-0.0897217	
1.60645	-0.0898743	
1.64246	-0.0915527	
1.67755	-0.0924683	
1.70959	-0.0923157	
1.73981	-0.0921631	
1.77124	-0.0921631	
1.80054	-0.0923157	
1.82953	-0.0923157	
1.83746	-0.0917053	
1.83807	-0.0895691	
1.8576	-0.0874329	
1.88232	-0.0857544	
1.90643	-0.0846863	
1.93176	-0.0827026	
1.95404	-0.0819397	
1.97815	-0.0804138	
1.99829	-0.0794983	
2.01508	-0.078125	
2.03491	-0.0802612	
2.052	-0.0808716	
2.06726	-0.0801086	
2.08038	-0.080719	
2.09412	-0.0846863	
2.10907	-0.0865173	
2.1167	-0.0875854	
2.12402	-0.0868225	
2.13348	-0.083313	
2.13989	-0.0785828	
2.14203	-0.0758362	
2.14264	-0.0737	
2.14233	-0.0733948	
2.14386	-0.0752258	
2.14203	-0.0756836	
2.13989	-0.0778198	
2.1344	-0.0758362	
2.13104	-0.0750732	
2.12524	-0.0726318	
2.11639	-0.072937	
2.10663	-0.072937	
2.09625	-0.0744629	
2.08679	-0.0756836	
2.07123	-0.0775146	
2.0575	-0.0779724	
2.04193	-0.0798035	
2.02576	-0.0819397	
2.00897	-0.0801086	
1.98914	-0.0759888	
1.96716	-0.0688171	
1.94824	-0.0671387	
1.9278	-0.0682068	
1.90247	-0.068512	
1.87927	-0.0663757	
1.85303	-0.0656128	
1.8277	-0.0653076	
1.80054	-0.065155	
1.77643	-0.0637817	
1.74957	-0.0630188	
1.72058	-0.0628662	
1.69556	-0.0622559	
1.66443	-0.0648499	
1.63727	-0.0656128	
1.60919	-0.0695801	
1.58081	-0.0700378	
1.55396	-0.0695801	
1.52435	-0.0682068	
1.49475	-0.065155	
1.46759	-0.0614929	
1.44073	-0.06073	
1.41113	-0.0604248	
1.38397	-0.0605774	
1.35651	-0.0605774	
1.3324	-0.0605774	
1.30585	-0.06073	
1.27899	-0.0604248	
1.25183	-0.0596619	
1.22742	-0.0588989	
1.20209	-0.0584412	
1.17798	-0.0567627	
1.15295	-0.058136	
1.1261	-0.0611877	
1.10413	-0.0628662	
1.08124	-0.0613403	
1.05774	-0.0588989	
1.03485	-0.058136	
1.01105	-0.0582886	
0.98877	-0.058136	
0.966797	-0.058136	
0.946045	-0.059967	
0.927734	-0.0590515	
0.902405	-0.058136	
0.882874	-0.0582886	
0.863342	-0.0584412	
0.846252	-0.0561523	
0.827026	-0.0531006	
0.80658	-0.0509644	
0.788574	-0.0483704	
0.770264	-0.0485229	
0.751953	-0.0527954	
0.735168	-0.0558472	
0.718079	-0.0559998	
0.700378	-0.0558472	
0.683594	-0.0537109	
0.666809	-0.0517273	
0.651245	-0.0526428	
0.634766	-0.0556946	
0.619202	-0.0592041	
0.605774	-0.0576782	
0.5896	-0.0558472	
0.575562	-0.0518799	
0.560303	-0.0531006	
0.547485	-0.0535583	
0.534058	-0.052948	
0.521545	-0.0506592	
0.509033	-0.0480652	
0.496826	-0.0462341	
0.484314	-0.0457764	
0.472107	-0.0431824	
0.461731	-0.0424194	
0.452576	-0.0466919	
0.441589	-0.0483704	
0.433044	-0.0482178	
0.422363	-0.0498962	
0.412598	-0.0486755	
0.407104	-0.0489807	
0.397644	-0.0488281	
0.392761	-0.050354	
0.386658	-0.0508118	
0.378723	-0.0509644	
0.373535	-0.0531006	
0.366516	-0.0535583	
0.362549	-0.052948	
0.35675	-0.0506592	
0.351257	-0.0468445	
0.344238	-0.0440979	
0.33905	-0.0405884	
0.331421	-0.0390625	
0.326233	-0.040741	
0.323486	-0.043335	
0.316772	-0.045166	
0.311584	-0.0486755	
0.307617	-0.0502014	
0.300293	-0.0486755	
0.2948	-0.0463867	
0.291443	-0.0456238	
0.285339	-0.0460815	
0.281982	-0.0453186	
0.275269	-0.0434875	
0.26947	-0.0413513	
0.265198	-0.0413513	
0.259705	-0.0448608	
0.254517	-0.0444031	
0.252075	-0.0479126	
0.247498	-0.0524902	
0.24231	-0.0531006	
0.235901	-0.0494385	
0.232849	-0.0468445	
0.228577	-0.0482178	
0.221863	-0.0500488	
0.216064	-0.0505066	
0.213318	-0.0518799	
0.206604	-0.0485229	
0.203857	-0.0444031	
0.19928	-0.0454712	
0.194092	-0.0483704	
0.190125	-0.0521851	
0.186462	-0.0535583	
0.18219	-0.0553894	
0.176392	-0.0535583	
0.174255	-0.0532532	
0.169678	-0.0512695	
0.166931	-0.050354	
0.16449	-0.0479126	
0.159607	-0.0457764	
0.15625	-0.0416565	
0.154724	-0.0431824	
0.150146	-0.045929	
0.149536	-0.0482178	
0.144958	-0.0460815	
0.142517	-0.0460815	
0.139465	-0.0460815	
0.137634	-0.0480652	
0.134583	-0.0500488	
0.135193	-0.0508118	
0.130615	-0.0491333	
0.1297	-0.0466919	
0.127563	-0.0463867	
0.125122	-0.0485229	
0.125427	-0.0486755	
0.122375	-0.0486755	
0.119934	-0.0482178	
0.117798	-0.0479126	
0.114746	-0.0456238	
0.115051	-0.045166	
0.114441	-0.0462341	
0.115051	-0.0485229	
0.110474	-0.050354	
0.109863	-0.0502014	
0.108032	-0.0466919	
0.105591	-0.0474548	
0.105286	-0.0485229	
0.101013	-0.0505066	
0.0997925	-0.0509644	
0.0979614	-0.0532532	
0.09552	-0.055542	
0.0906372	-0.0561523	
0.0878906	-0.0558472	
0.0857544	-0.0552368	
0.083313	-0.0515747	
0.0808716	-0.0508118	
0.0762939	-0.0506592	
0.0720215	-0.0489807	
0.0708008	-0.0480652	
0.0686646	-0.0456238	
0.0665283	-0.045929	
0.0662231	-0.0485229	
0.065918	-0.0500488	
0.0637817	-0.0486755	
0.0613403	-0.0469971	
0.0588989	-0.0480652	
0.0570679	-0.0498962	
0.0561523	-0.0526428	
0.0524902	-0.0531006	
0.0518799	-0.0532532	
0.0494385	-0.0531006	
0.0469971	-0.0534058	
0.0421143	-0.0532532	
0.0393677	-0.0532532	
0.0369263	-0.0526428	
0.0332642	-0.0505066	
0.0296021	-0.0511169	
0.0268555	-0.0544739	
0.0247192	-0.0549316	
0.0241089	-0.0556946	
0.0201416	-0.0541687	
0.0189209	-0.0497437	
0.0170898	-0.0465393	
0.0149536	-0.0476074	
0.0125122	-0.0502014	
0.0115967	-0.0534058	
0.0115967	-0.0531006	
0.0125122	-0.0492859	
0.00976563	-0.0482178	
0.00915527	-0.0500488	
0.00732422	-0.0509644	
0.00671387	-0.0531006	
0.00701904	-0.0535583	
0.00640869	-0.0532532	
0.00518799	-0.052948	
0.00274658	-0.0532532	
0.00244141	-0.0531006	
0.00274658	-0.0512695	
0.00244141	-0.0469971	
0.00244141	-0.0440979	
0.00244141	-0.0463867	
0.000305176	-0.0506592	
0.00183105	-0.0534058	
0.00244141	-0.0535583	
-0.000305176	-0.0514221	
-0.00183105	-0.0491333	
-0.00305176	-0.0480652	
-0.00274658	-0.0505066	
-0.00762939	-0.052948	
-0.00793457	-0.0537109	
-0.00671387	-0.0572205	
-0.00762939	-0.0584412	
-0.0100708	-0.0561523	
-0.0125122	-0.0541687	
-0.0125122	-0.052948	
-0.0125122	-0.0520325	
-0.0140381	-0.0506592	
-0.0161743	-0.0509644	
-0.0146484	-0.0524902	
-0.0158691	-0.0531006	
-0.0164795	-0.0526428	
-0.0180054	-0.052948	
-0.0170898	-0.0558472	
-0.0170898	-0.058136	
-0.0167847	-0.0559998	
-0.0170898	-0.0532532	
-0.0164795	-0.0532532	
-0.0170898	-0.0552368	
-0.0140381	-0.0578308	
-0.0143433	-0.0582886	
-0.0125122	-0.0579834	
-0.0140381	-0.0559998	
-0.0143433	-0.052948	
-0.0119019	-0.0512695	
-0.0125122	-0.052948	
-0.012207	-0.0531006	
-0.012207	-0.0505066	
-0.0106812	-0.0497437	
-0.00732422	-0.0483704	
-0.00732422	-0.0483704	
-0.00396729	-0.0485229	
0.00274658	-0.0482178	
0.00183105	-0.0466919	
0.00457764	-0.0483704	
0.00762939	-0.0488281	
0.00732422	-0.0521851	
0.00915527	-0.0511169	
0.0119019	-0.0531006	
0.012207	-0.0532532	
0.0119019	-0.0532532	
0.012207	-0.0531006	
0.0100708	-0.0549316	
0.0112915	-0.057373	
0.012207	-0.0578308	
0.010376	-0.0559998	
0.00701904	-0.0518799	
0.00732422	-0.0508118	
0.00732422	-0.050354	
0.00732422	-0.0485229	
0.00335693	-0.0482178	
0.00183105	-0.0483704	
0.00244141	-0.0485229	
-0.00213623	-0.0505066	
-0.00335693	-0.0524902	
-0.00305176	-0.0506592	
-0.00549316	-0.0485229	
-0.00762939	-0.0498962	
-0.00823975	-0.0524902	
-0.00732422	-0.0535583	
-0.00793457	-0.0547791	
-0.0112915	-0.0532532	
-0.0128174	-0.0505066	
-0.0164795	-0.0485229	
-0.017395	-0.0498962	
-0.0213623	-0.0524902	
-0.0216675	-0.052948	
-0.0259399	-0.0535583	
-0.0274658	-0.0512695	
-0.0271606	-0.0483704	
-0.0308228	-0.0480652	
-0.0320435	-0.0465393	
-0.03479	-0.0469971	
-0.0366211	-0.0457764	
-0.0393677	-0.045929	
-0.0415039	-0.0456238	
-0.0418091	-0.0473022	
-0.0415039	-0.0485229	
-0.0454712	-0.0546265	
-0.0469971	-0.0582886	
-0.0515747	-0.0587463	
-0.0521851	-0.0614929	
-0.055542	-0.0585938	
-0.0585938	-0.0537109	
-0.0613403	-0.0509644	
-0.0646973	-0.0508118	
-0.0662231	-0.0526428	
-0.0668335	-0.0535583	
-0.0686646	-0.0511169	
-0.0708008	-0.0488281	
-0.071106	-0.0505066	
-0.0735474	-0.050354	
-0.0744629	-0.0482178	
-0.0759888	-0.0486755	
-0.0759888	-0.0505066	
-0.0796509	-0.0505066	
-0.083313	-0.0508118	
-0.085144	-0.0508118	
-0.0881958	-0.0532532	
-0.0909424	-0.052948	
-0.093689	-0.0531006	
-0.0958252	-0.0531006	
-0.0991821	-0.0521851	
-0.100403	-0.0514221	
-0.107117	-0.0506592	
-0.110474	-0.0508118	
-0.11322	-0.0508118	
-0.115051	-0.050354	
-0.115662	-0.0505066	
-0.120239	-0.0506592	
-0.122986	-0.0502014	
-0.125122	-0.0482178	
-0.125427	-0.0482178	
-0.129395	-0.0480652	
-0.13031	-0.0476074	
-0.132446	-0.0485229	
-0.134888	-0.0505066	
-0.135193	-0.050354	
-0.134888	-0.050354	
-0.134888	-0.0524902	
-0.137939	-0.055542	
-0.140076	-0.0543213	
-0.139465	-0.0561523	
-0.139771	-0.0578308	
-0.140076	-0.0559998	
-0.142822	-0.0515747	
-0.144653	-0.0489807	
-0.144653	-0.0488281	
-0.144653	-0.0509644	
-0.149536	-0.052948	
-0.149841	-0.0553894	
-0.149841	-0.0553894	
-0.154419	-0.0535583	
-0.154724	-0.0508118	
-0.154724	-0.0488281	
-0.154114	-0.0500488	
-0.158081	-0.0505066	
-0.160217	-0.0511169	
-0.163879	-0.052948	
-0.163879	-0.0531006	
-0.168457	-0.0549316	
-0.169983	-0.0575256	
-0.171814	-0.059967	
-0.173645	-0.0605774	
-0.174255	-0.0566101	
-0.178528	-0.0517273	
-0.18219	-0.0492859	
-0.183411	-0.0494385	
-0.186768	-0.0506592	
-0.190735	-0.0514221	
-0.193787	-0.0512695	
-0.198669	-0.0488281	
-0.201111	-0.0473022	
-0.204163	-0.04776	
-0.208435	-0.0502014	
-0.210571	-0.0514221	
-0.213318	-0.0505066	
-0.21759	-0.0526428	
-0.220642	-0.0553894	
-0.221558	-0.055542	
-0.223389	-0.0527954	
-0.22583	-0.0526428	
-0.227661	-0.0532532	
-0.230408	-0.0535583	
-0.233154	-0.0537109	
-0.235291	-0.0535583	
-0.237427	-0.0532532	
-0.238037	-0.0526428	
-0.242004	-0.0508118	
-0.242615	-0.0494385	
-0.24231	-0.050354	
-0.246277	-0.050354	
-0.247498	-0.0518799	
-0.248413	-0.050354	
-0.247498	-0.0486755	
-0.247498	-0.0506592	
-0.250549	-0.0508118	
-0.252991	-0.0495911	
-0.255737	-0.0508118	
-0.253906	-0.0535583	
-0.257568	-0.0553894	
-0.257263	-0.055542	
-0.257568	-0.0556946	
-0.257568	-0.0534058	
-0.257568	-0.0491333	
-0.262451	-0.050354	
-0.263062	-0.0511169	
-0.262451	-0.0534058	
-0.262756	-0.0537109	
-0.262451	-0.0531006	
-0.264587	-0.0526428	
-0.262756	-0.0485229	
-0.267029	-0.045929	
-0.265808	-0.0460815	
-0.267334	-0.0479126	
-0.264587	-0.0485229	
-0.267029	-0.0502014	
-0.265198	-0.0505066	
-0.264587	-0.0485229	
-0.264893	-0.0485229	
-0.262756	-0.0502014	
-0.262451	-0.0526428	
-0.263062	-0.0509644	
-0.262146	-0.0524902	
-0.262756	-0.0534058	
-0.261841	-0.055542	
-0.262146	-0.0552368	
-0.262146	-0.052948	
-0.262451	-0.0506592	
-0.262451	-0.0469971	
-0.262146	-0.0457764	
-0.262146	-0.0480652	
-0.262451	-0.0506592	
-0.262756	-0.0512695	
-0.262756	-0.0524902	
-0.262756	-0.0524902	
-0.262756	-0.0547791	
-0.262756	-0.0556946	
-0.262451	-0.0540161	
-0.266418	-0.0526428	
-0.267334	-0.0524902	
-0.267029	-0.052948	
-0.267639	-0.0511169	
-0.267944	-0.0506592	
-0.265808	-0.0506592	
-0.265503	-0.0524902	
-0.262451	-0.0549316	
-0.264282	-0.0550842	
-0.265198	-0.0527954	
-0.265503	-0.0491333	
-0.262756	-0.0482178	
-0.262756	-0.0489807	
-0.262451	-0.0502014	
-0.262146	-0.0483704	
-0.262756	-0.0485229	
-0.261536	-0.050354	
-0.262756	-0.0532532	
-0.262451	-0.0572205	
-0.262756	-0.0564575	
-0.262756	-0.0538635	
-0.260315	-0.0511169	
-0.263062	-0.0482178	
-0.265198	-0.0497437	
-0.266724	-0.052948	
-0.267029	-0.0556946	
-0.269165	-0.0535583	
-0.275574	-0.0509644	
-0.278015	-0.0466919	
-0.277405	-0.0460815	
-0.281982	-0.045929	
-0.281677	-0.0479126	
-0.281982	-0.0482178	
-0.286255	-0.0479126	
-0.28717	-0.0480652	
-0.286865	-0.0485229	
-0.287476	-0.0483704	
-0.28717	-0.0482178	
-0.290833	-0.0460815	
-0.290833	-0.0482178	
-0.292358	-0.0482178	
-0.290222	-0.0469971	
-0.291443	-0.0479126	
-0.292053	-0.0505066	
-0.296326	-0.052948	
-0.292358	-0.0570679	
-0.292358	-0.058136	
-0.294189	-0.0563049	
-0.296936	-0.0541687	
-0.297241	-0.0517273	
-0.297852	-0.0502014	
-0.297241	-0.0468445	
-0.299683	-0.0457764	
-0.300293	-0.0460815	
-0.301514	-0.0495911	
-0.301819	-0.0483704	
-0.302124	-0.0483704	
-0.303955	-0.0466919	
-0.302124	-0.0462341	
-0.306396	-0.0485229	
-0.307007	-0.0521851	
-0.306702	-0.0532532	
-0.305786	-0.0518799	
-0.309448	-0.0514221	
-0.309753	-0.0509644	
-0.310059	-0.0524902	
-0.308533	-0.0553894	
-0.311279	-0.0512695	
-0.311584	-0.0448608	
-0.311279	-0.0390625	
-0.311279	-0.0341797	
-0.31189	-0.0308228	
-0.312195	-0.0288391	
-0.311279	-0.0280762	
-0.31189	-0.0244141	
-0.315857	-0.019989	
-0.316162	-0.0213623	
-0.316772	-0.0219727	
-0.318909	-0.0239563	
-0.317383	-0.0260925	
-0.319519	-0.0262451	
-0.321655	-0.0260925	
-0.32135	-0.0238037	
-0.32135	-0.0257874	
-0.321655	-0.0286865	
-0.325623	-0.0286865	
-0.326233	-0.0263977	
-0.326233	-0.0260925	
-0.3302	-0.0241089	
-0.331116	-0.0213623	
-0.331116	-0.0193787	
-0.333557	-0.0166321	
-0.335999	-0.0137329	
-0.336304	-0.00961304	
-0.336609	-0.00915527	
-0.33844	-0.0088501	
-0.339355	-0.00732422	
-0.338745	-0.00671387	
-0.340576	-0.0062561	
-0.341187	-0.00442505	
-0.343933	-0.00366211	
-0.345764	0.000152588	
-0.345764	0.00656128	
-0.345764	0.0102234	
-0.345459	0.0143433	
-0.345459	0.0192261	
-0.34668	0.0218201	
-0.348511	0.0230408	
-0.348816	0.0244141	
-0.351257	0.0271606	
-0.351257	0.0334167	
-0.352783	0.0367737	
-0.354309	0.0393677	
-0.35675	0.0437927	
-0.358582	0.0444031	
-0.359192	0.0444031	
-0.361328	0.0444031	
-0.363464	0.0440979	
-0.365601	0.0401306	
-0.366516	0.0334167	
-0.370483	0.032959	
-0.372314	0.0328064	
-0.37323	0.0344849	
-0.374756	0.0372314	
-0.378723	0.037384	
-0.380554	0.0390625	
-0.381165	0.0376892	
-0.384521	0.0308228	
-0.385742	0.0233459	
-0.385132	0.0184631	
-0.385132	0.0180054	
-0.385132	0.0138855	
-0.387573	0.00854492	
-0.387878	0.00350952	
-0.388184	0.000915527	
-0.388184	0.000762939	
-0.388184	-0.00106812	
-0.390015	-0.00213623	
-0.389404	-0.0038147	
-0.388489	-0.00457764	
-0.390015	-0.00701904	
-0.389404	-0.0134277	
-0.387573	-0.0202942	
-0.386047	-0.0241089	
-0.384827	-0.0282288	
-0.382996	-0.0285339	
-0.380554	-0.030365	
-0.380554	-0.0312805	
-0.376587	-0.035553	
-0.375671	-0.039978	
-0.375671	-0.0413513	
-0.375977	-0.0437927	
-0.37323	-0.0473022	
-0.369568	-0.0521851	
-0.370483	-0.0596619	
-0.370483	-0.0669861	
-0.370483	-0.070343	
-0.370483	-0.075531	
-0.370483	-0.0796509	
-0.370483	-0.0823975	
-0.370483	-0.0827026	
-0.370483	-0.0846863	
-0.375366	-0.0848389	
-0.375366	-0.0848389	
-0.375366	-0.0839233	
-0.378418	-0.0846863	
-0.380554	-0.0849915	
-0.380554	-0.0820923	
-0.380554	-0.0785828	
-0.380554	-0.0758362	
-0.380249	-0.0708008	
-0.385437	-0.067749	
-0.384216	-0.0682068	
-0.385742	-0.0704956	
-0.385742	-0.0704956	
-0.385132	-0.0720215	
-0.386047	-0.075531	
-0.385132	-0.0779724	
-0.385742	-0.0801086	
-0.387268	-0.0804138	
-0.386047	-0.0802612	
-0.386047	-0.0804138	
-0.385132	-0.0842285	
-0.385132	-0.083313	
-0.385132	-0.0782776	
-0.386047	-0.0759888	
-0.385437	-0.0779724	
-0.386047	-0.0819397	
-0.385132	-0.0808716	
-0.386047	-0.0785828	
-0.386047	-0.0758362	
-0.386047	-0.0735474	
-0.385742	-0.0709534	
-0.385437	-0.0701904	
-0.386047	-0.0704956	
-0.383606	-0.0726318	
-0.382996	-0.0730896	
-0.38147	-0.0724792	
-0.380554	-0.0704956	
-0.380554	-0.071106	
-0.376587	-0.0732422	
-0.375671	-0.0749207	
-0.375366	-0.0750732	
-0.375671	-0.0750732	
-0.375671	-0.0750732	
-0.370789	-0.0752258	
-0.370483	-0.0752258	
-0.370483	-0.0752258	
-0.368347	-0.0749207	
-0.365601	-0.072937	
-0.365601	-0.070343	
-0.365906	-0.0683594	
-0.365906	-0.067749	
-0.366821	-0.0680542	
-0.365601	-0.0662231	
-0.365906	-0.065918	
-0.365295	-0.0683594	
-0.365601	-0.0698853	
-0.365906	-0.0706482	
-0.365601	-0.0701904	
-0.365601	-0.0663757	
-0.370178	-0.0654602	
-0.368958	-0.0637817	
-0.366211	-0.0631714	
-0.370789	-0.0634766	
-0.367737	-0.0653076	
-0.370483	-0.0654602	
-0.371399	-0.0653076	
-0.370789	-0.0656128	
-0.370178	-0.0637817	
-0.370789	-0.0622559	
-0.374146	-0.0579834	
-0.370789	-0.0543213	
-0.37323	-0.0509644	
-0.372314	-0.045929	
-0.375061	-0.0386047	
-0.375061	-0.0299072	
-0.375366	-0.0190735	
-0.375671	-0.00839233	
-0.378113	-0.000152588	
-0.378113	0.0088501	
-0.376282	0.0131226	
-0.375671	0.0151062	
-0.375366	0.0152588	
-0.375061	0.0112915	
-0.375977	0.0108337	
-0.375977	0.0141907	
-0.375977	0.0219727	
-0.375061	0.0314331	
-0.375366	0.0411987	
-0.376587	0.0526428	
-0.377197	0.0593567	
-0.379944	0.0724792	
-0.379944	0.0883484	
-0.379944	0.101776	
-0.380859	0.112152	
-0.380554	0.120392	
-0.379944	0.135803	
-0.380249	0.162048	
-0.380554	0.197296	
-0.375977	0.236206	
-0.374756	0.281067	
-0.371094	0.321198	
-0.367737	0.354309	
-0.365906	0.384369	
-0.361328	0.414734	
-0.360413	0.437164	
-0.357056	0.449829	
-0.352783	0.463257	
-0.351257	0.479431	
-0.34668	0.501404	
-0.343323	0.511322	
-0.341187	0.507507	
-0.339966	0.487061	
-0.336609	0.456848	
-0.336304	0.420074	
-0.331421	0.367279	
-0.328674	0.294952	
-0.328064	0.220947	
-0.325623	0.154266	
-0.326843	0.10376	
-0.326538	0.0700378	
-0.32196	0.0517273	
-0.321655	0.045166	
-0.321655	0.0431824	
-0.32135	0.0454712	
-0.32074	0.0422668	
-0.321045	0.0314331	
-0.321655	0.0216675	
-0.321655	0.0170898	
-0.32196	0.010376	
-0.32196	-0.00473022	
-0.324402	-0.0215149	
-0.326538	-0.0424194	
-0.326843	-0.0790405	
-0.326538	-0.126038	
-0.326538	-0.172119	
-0.325317	-0.200806	
-0.328979	-0.20462	
-0.330811	-0.191956	
-0.330811	-0.168915	
-0.333862	-0.142059	
-0.335693	-0.118561	
-0.338745	-0.0971985	
-0.341187	-0.0836182	
-0.345459	-0.0740051	
-0.348816	-0.0666809	
-0.351257	-0.063324	
-0.353699	-0.0613403	
-0.358276	-0.0650024	
-0.363464	-0.0679016	
-0.368652	-0.0704956	
-0.37323	-0.0750732	
-0.379944	-0.0790405	
-0.385132	-0.0802612	
-0.392151	-0.0785828	
-0.397949	-0.0793457	
-0.402527	-0.0817871	
-0.404663	-0.0843811	
-0.411987	-0.0866699	
-0.41748	-0.0874329	
-0.419312	-0.0869751	
-0.423889	-0.085144	
-0.427551	-0.0874329	
-0.429077	-0.0878906	
-0.43396	-0.0878906	
-0.437622	-0.0875854	
-0.439148	-0.0892639	
-0.441284	-0.0900269	
-0.444031	-0.087738	
-0.444336	-0.0852966	
-0.446167	-0.0830078	
-0.447693	-0.0787354	
-0.448914	-0.0718689	
-0.447388	-0.0686646	
-0.448608	-0.0700378	
-0.449524	-0.0723267	
-0.448303	-0.0769043	
-0.448303	-0.0776672	
-0.447693	-0.0778198	
-0.444946	-0.0759888	
-0.444031	-0.0747681	
-0.444336	-0.0712585	
-0.444336	-0.0706482	
-0.441589	-0.0726318	
-0.443726	-0.0726318	
-0.440369	-0.0706482	
-0.440674	-0.0679016	
-0.439148	-0.0656128	
-0.439148	-0.0654602	
-0.438843	-0.0653076	
-0.438843	-0.0630188	
-0.439758	-0.058136	
-0.437927	-0.058136	
-0.436707	-0.0596619	
-0.436401	-0.0584412	
-0.433655	-0.0585938	
-0.43457	-0.0561523	
-0.43335	-0.0531006	
-0.435181	-0.0508118	
-0.429688	-0.0512695	
-0.429688	-0.0531006	
-0.429077	-0.0532532	
-0.429077	-0.0527954	
-0.428772	-0.0511169	
-0.429688	-0.0460815	
-0.429077	-0.0450134	
-0.429688	-0.0436401	
-0.428772	-0.0440979	
-0.429382	-0.043335	
-0.429688	-0.0421143	
-0.429077	-0.0416565	
-0.429077	-0.0428772	
-0.429382	-0.0416565	
-0.432739	-0.0405884	
-0.434265	-0.0384521	
-0.43457	-0.0419617	
-0.434265	-0.0436401	
-0.434265	-0.0460815	
-0.43457	-0.0476074	
-0.434265	-0.045929	
-0.433655	-0.0442505	
-0.434265	-0.0413513	
-0.43396	-0.0386047	
-0.434875	-0.0382996	
-0.434265	-0.0384521	
-0.429993	-0.038147	
-0.429382	-0.0379944	
-0.428772	-0.035553	
-0.429382	-0.0338745	
-0.429688	-0.0317383	
-0.429077	-0.0296021	
-0.429382	-0.0309753	
-0.429077	-0.0306702	
-0.428467	-0.0283813	
-0.429077	-0.0268555	
-0.427551	-0.0273132	
-0.427551	-0.0271606	
-0.4245	-0.0286865	
-0.4245	-0.0288391	
-0.424194	-0.0291443	
-0.423889	-0.0282288	
-0.424194	-0.0259399	
-0.4245	-0.0202942	
-0.4245	-0.0184631	
-0.4245	-0.018158	
-0.4245	-0.0190735	
-0.4245	-0.0190735	
-0.424805	-0.0212097	
-0.424194	-0.0201416	
-0.4245	-0.0205994	
-0.4245	-0.0184631	
-0.424194	-0.0141907	
-0.424805	-0.0119019	
-0.424805	-0.0143433	
-0.424194	-0.0163269	
-0.429077	-0.0125122	
-0.429077	-0.00457764	
-0.431824	-0.00228882	
-0.432434	-0.00640869	
-0.43457	-0.0088501	
-0.43335	-0.00732422	
-0.439148	-0.00457764	
-0.439758	-0.00640869	
-0.439453	-0.00518799	
-0.44342	-0.0062561	
-0.444336	-0.00289917	
-0.44342	-0.0012207	
-0.443726	0.000457764	
-0.444336	0.000457764	
-0.443726	0.000152588	
-0.444336	-0.00137329	
-0.443726	0.000457764	
-0.446472	0.00244141	
-0.447083	0.00457764	
-0.447083	0.00564575	
-0.448914	0.00518799	
-0.45166	0.00289917	
-0.45166	0.00518799	
-0.451965	0.00915527	
-0.454712	0.0105286	
-0.454102	0.0105286	
-0.454102	0.00900269	
-0.458679	0.010376	
-0.458984	0.0126648	
-0.461426	0.0154114	
-0.461121	0.0192261	
-0.461731	0.0186157	
-0.463867	0.0160217	
-0.460815	0.0158691	
-0.46051	0.0198364	
-0.458679	0.0265503	
-0.458679	0.0317383	
-0.458679	0.0340271	
-0.458984	0.0323486	
-0.454712	0.0282288	
-0.454407	0.0276184	
-0.451355	0.0276184	
-0.448914	0.0274658	
-0.446777	0.027771	
-0.445251	0.0274658	
-0.444641	0.0274658	
-0.441895	0.0292969	
-0.439758	0.030365	
-0.437317	0.0340271	
-0.43457	0.0349426	
-0.43396	0.0366211	
-0.434265	0.0395203	
-0.43457	0.043335	
-0.432434	0.042572	
-0.431824	0.0439453	
-0.432129	0.0434875	
-0.43457	0.0448608	
-0.429688	0.0485229	
-0.429382	0.0492859	
-0.429382	0.0512695	
-0.433655	0.0518799	
-0.434265	0.0517273	
-0.43457	0.0518799	
-0.438843	0.0520325	
-0.438843	0.0564575	
-0.441589	0.0588989	
-0.4422	0.0596619	
-0.444336	0.0614929	
-0.448303	0.0614929	
-0.448608	0.0621033	
-0.453491	0.0642395	
-0.454102	0.0688171	
-0.456848	0.0712585	
-0.458679	0.0718689	
-0.458679	0.0723267	
-0.461731	0.0737	
-0.463562	0.0741577	
-0.463867	0.0794983	
-0.466919	0.0827026	
-0.46875	0.0848389	
-0.468445	0.0817871	
-0.471802	0.0790405	
-0.473022	0.0785828	
-0.473633	0.0764465	
-0.473938	0.0700378	
-0.473633	0.0674438	
-0.472717	0.0708008	
-0.476074	0.0737	
-0.476074	0.0723267	
-0.474854	0.0718689	
-0.476074	0.0730896	
-0.475769	0.0738525	
-0.474548	0.0715637	
-0.475464	0.0704956	
-0.472717	0.0706482	
-0.473633	0.0715637	
-0.473633	0.0717163	
-0.473022	0.0737	
-0.46875	0.0735474	
-0.469055	0.0700378	
-0.464172	0.0674438	
-0.464783	0.0657654	
-0.463562	0.0637817	
-0.458984	0.0614929	
-0.455933	0.0614929	
-0.453796	0.0572205	
-0.450134	0.0541687	
-0.446167	0.0520325	
-0.441589	0.0512695	
-0.438843	0.0492859	
-0.432129	0.0454712	
-0.429688	0.0460815	
-0.422058	0.045166	
-0.41748	0.0444031	
-0.40741	0.0422668	
-0.401611	0.0401306	
-0.393066	0.0378418	
-0.383606	0.0349426	
-0.373535	0.0323486	
-0.361633	0.0297546	
-0.34668	0.0257874	
-0.331421	0.0202942	
-0.317383	0.0134277	
-0.297546	0.00854492	
-0.27771	0.00183105	
-0.253601	-0.00427246	
-0.230713	-0.0111389	
-0.209351	-0.0161743	
-0.180359	-0.0192261	
-0.153198	-0.0210571	
-0.123291	-0.0230408	
-0.0912476	-0.0234985	
-0.0604248	-0.0224304	
-0.0234985	-0.0283813	
0.0115967	-0.0350952	
0.0497437	-0.040741	
0.0848389	-0.0431824	
0.124512	-0.0442505	
0.166321	-0.04776	
0.210571	-0.0521851	
0.253296	-0.0553894	
0.295715	-0.0645447	
0.338745	-0.0740051	
0.388794	-0.0772095	
0.435791	-0.075531	
0.484009	-0.0756836	
0.533752	-0.0773621	
0.58197	-0.0782776	
0.632019	-0.0819397	
0.684814	-0.0842285	
0.734558	-0.0846863	
0.783997	-0.0862122	
0.835266	-0.0849915	
0.886841	-0.0848389	
0.940552	-0.085144	
0.990295	-0.0871277	
1.04187	-0.0898743	
1.08948	-0.0895691	
1.13831	-0.0912476	
1.18683	-0.088501	
1.23596	-0.0898743	
1.28052	-0.0926208	
1.32568	-0.0946045	
1.37085	-0.0947571	
1.41449	-0.0944519	
1.45386	-0.0942993	
1.49719	-0.0964355	
1.53809	-0.0971985	
1.57715	-0.0968933	
1.61377	-0.0975037	
1.6507	-0.0990295	
1.68304	-0.0982666	
1.71631	-0.0968933	
1.75049	-0.0947571	
1.77856	-0.0930786	
1.80695	-0.0921631	
1.83441	-0.0923157	
1.86005	-0.0907898	
1.88416	-0.0923157	
1.90613	-0.0941467	
1.93085	-0.0944519	
1.95038	-0.0923157	
1.96991	-0.0900269	
1.98669	-0.0941467	
2.00439	-0.0968933	
2.01996	-0.0970459	
2.03461	-0.0926208	
2.0462	-0.088501	
2.05627	-0.0854492	
2.06421	-0.0860596	
2.07092	-0.0831604	
2.07825	-0.0810242	
2.08344	-0.0866699	
2.08649	-0.0918579	
2.08862	-0.0941467	
2.08893	-0.0907898	
2.08618	-0.0866699	
2.08405	-0.0805664	
2.0813	-0.0793457	
2.07855	-0.0819397	
2.07153	-0.0819397	
2.06177	-0.0787354	
2.05688	-0.0762939	
2.04742	-0.0752258	
2.0343	-0.0769043	
2.02271	-0.0779724	
2.00836	-0.0778198	
1.99066	-0.0802612	
1.97449	-0.0778198	
1.95679	-0.075531	
1.93695	-0.0749207	
1.9165	-0.0753784	
1.89728	-0.0746155	
1.87775	-0.0730896	
1.85303	-0.070343	
1.8338	-0.0686646	
1.81122	-0.0704956	
1.78925	-0.0747681	
1.76514	-0.0772095	
1.74164	-0.0767517	
1.71753	-0.0762939	
1.69647	-0.0759888	
1.67175	-0.0758362	
1.64764	-0.0750732	
1.62262	-0.0738525	
1.5979	-0.0750732	
1.57471	-0.0776672	
1.55182	-0.0782776	
1.52466	-0.0761414	
1.50055	-0.0732422	
1.47644	-0.0706482	
1.45172	-0.0721741	
1.42395	-0.0704956	
1.39709	-0.0657654	
1.37451	-0.0610352	
1.34521	-0.0578308	
1.32111	-0.0579834	
1.29395	-0.058136	
1.26984	-0.0604248	
1.24207	-0.063324	
1.21643	-0.065155	
1.19049	-0.0656128	
1.16821	-0.0653076	
1.14227	-0.065918	
1.1145	-0.0672913	
1.09253	-0.0656128	
1.06781	-0.0672913	
1.04523	-0.067749	
1.02356	-0.0675964	
0.997009	-0.0656128	
0.974731	-0.0637817	
0.950623	-0.0614929	
0.930176	-0.0584412	
0.906372	-0.0541687	
0.88562	-0.0553894	
0.863342	-0.0617981	
0.842285	-0.0624084	
0.822449	-0.0602722	
0.802917	-0.0559998	
0.783691	-0.0575256	
0.762939	-0.0598145	
0.744019	-0.0624084	
0.726318	-0.0614929	
0.707092	-0.062561	
0.689697	-0.0585938	
0.674133	-0.0572205	
0.655518	-0.0598145	
0.640564	-0.0601196	
0.624084	-0.0602722	
0.608826	-0.0619507	
0.591736	-0.0604248	
0.575562	-0.0561523	
0.563965	-0.0553894	
0.549622	-0.0579834	
0.535889	-0.0578308	
0.522461	-0.0543213	
0.510559	-0.0531006	
0.495911	-0.0535583	
0.486145	-0.0553894	
0.471497	-0.0532532	
0.458374	-0.0512695	
0.446472	-0.0527954	
0.436707	-0.0553894	
0.426636	-0.0550842	
0.41687	-0.0498962	
0.407104	-0.0502014	
0.397644	-0.0509644	
0.387573	-0.0524902	
0.377502	-0.0514221	
0.368652	-0.0532532	
0.358582	-0.0547791	
0.348206	-0.052948	
0.341492	-0.0511169	
0.333557	-0.0512695	
0.323181	-0.0546265	
0.313721	-0.0532532	
0.306702	-0.0485229	
0.298767	-0.0421143	
0.291443	-0.0405884	
0.284424	-0.0424194	
0.27771	-0.0434875	
0.270081	-0.0462341	
0.264587	-0.0486755	
0.254822	-0.0526428	
0.249634	-0.0535583	
0.244751	-0.0547791	
0.242004	-0.0579834	
0.237427	-0.06073	
0.233765	-0.062561	
0.228882	-0.062561	
0.22522	-0.0588989	
0.223694	-0.0543213	
0.218201	-0.0576782	
0.213623	-0.0587463	
0.210876	-0.055542	
0.205994	-0.0494385	
0.203857	-0.0442505	
0.19928	-0.0473022	
0.196228	-0.0500488	
0.193787	-0.0491333	
0.188904	-0.0480652	
0.188293	-0.0480652	
0.184631	-0.0526428	
0.183716	-0.0556946	
0.184021	-0.0523376	
0.179749	-0.0494385	
0.178833	-0.0524902	
0.174561	-0.052948	
0.174255	-0.0531006	
0.171204	-0.0575256	
0.169067	-0.0585938	
0.167847	-0.0559998	
0.16449	-0.0531006	
0.162354	-0.0505066	
0.159302	-0.0471497	
0.155029	-0.0497437	
0.151672	-0.0526428	
0.14679	-0.055542	
0.144653	-0.0550842	
0.137634	-0.0538635	
0.135193	-0.055542	
0.131531	-0.0549316	
0.125427	-0.0515747	
0.124817	-0.0508118	
0.120544	-0.0515747	
0.115356	-0.0558472	
0.112	-0.0598145	
0.110168	-0.0582886	
0.107422	-0.0540161	
0.102234	-0.052948	
0.0997925	-0.0514221	
0.0979614	-0.0509644	
0.09552	-0.0534058	
0.0952148	-0.0556946	
0.0906372	-0.0535583	
0.090332	-0.0476074	
0.0875854	-0.0440979	
0.0857544	-0.0462341	
0.085144	-0.0488281	
0.0811768	-0.0527954	
0.0808716	-0.0526428	
0.0805664	-0.0488281	
0.0765991	-0.0466919	
0.0756836	-0.0500488	
0.0759888	-0.0547791	
0.0756836	-0.0579834	
0.0735474	-0.0595093	
0.071106	-0.0579834	
0.071106	-0.0561523	
0.071106	-0.0566101	
0.0665283	-0.0556946	
0.0637817	-0.0534058	
0.0613403	-0.0538635	
0.0613403	-0.0538635	
0.0576782	-0.0544739	
0.0534058	-0.052948	
0.0512695	-0.0514221	
0.0485229	-0.0547791	
0.0463867	-0.0541687	
0.0469971	-0.0531006	
0.045166	-0.0512695	
0.0421143	-0.0511169	
0.0415039	-0.0550842	
0.0393677	-0.0579834	
0.0363159	-0.0564575	
0.0372314	-0.0541687	
0.0341797	-0.0534058	
0.0292969	-0.0556946	
0.0268555	-0.0576782	
0.0271606	-0.0544739	
0.0228882	-0.0532532	
0.0189209	-0.0514221	
0.0170898	-0.0509644	
0.0125122	-0.0527954	
0.0119019	-0.0537109	
0.00915527	-0.0579834	
0.00701904	-0.0628662	
0.00671387	-0.062561	
0.00244141	-0.0601196	
-0.000915527	-0.0567627	
-0.00274658	-0.055542	
-0.00488281	-0.0556946	
-0.00762939	-0.0558472	
-0.0115967	-0.0578308	
-0.012207	-0.0579834	
-0.017395	-0.0595093	
-0.0216675	-0.059967	
-0.0219727	-0.0564575	
-0.0250244	-0.0576782	
-0.027771	-0.0598145	
-0.0296021	-0.0588989	
-0.0314331	-0.0579834	
-0.03479	-0.0558472	
-0.0369263	-0.0558472	
-0.0366211	-0.0572205	
-0.0415039	-0.0556946	
-0.0454712	-0.0527954	
-0.0460815	-0.0508118	
-0.0497437	-0.0505066	
-0.0512695	-0.0509644	
-0.0515747	-0.0526428	
-0.0521851	-0.0540161	
-0.0546265	-0.0619507	
-0.0518799	-0.0650024	
-0.0518799	-0.0593567	
-0.0518799	-0.0588989	
-0.0515747	-0.0588989	
-0.0524902	-0.0608826	
-0.0515747	-0.0631714	
-0.0518799	-0.0634766	
-0.0518799	-0.0608826	
-0.0543213	-0.0559998	
-0.0524902	-0.0537109	
-0.0537109	-0.0556946	
-0.0518799	-0.0570679	
-0.0518799	-0.0558472	
-0.0518799	-0.057373	
-0.0521851	-0.0569153	
-0.0521851	-0.0566101	
-0.0512695	-0.0564575	
-0.0515747	-0.055542	
-0.0518799	-0.055542	
-0.0500488	-0.0570679	
-0.0469971	-0.0572205	
-0.0466919	-0.0558472	
-0.0469971	-0.055542	
-0.0445557	-0.055542	
-0.0436401	-0.0543213	
-0.0424194	-0.0578308	
-0.0421143	-0.0604248	
-0.0424194	-0.058136	
-0.0436401	-0.0543213	
-0.0460815	-0.0547791	
-0.0466919	-0.0544739	
-0.0463867	-0.0572205	
-0.0469971	-0.0584412	
-0.0469971	-0.0578308	
-0.0476074	-0.0575256	
-0.0469971	-0.058136	
-0.0518799	-0.0578308	
-0.0518799	-0.055542	
-0.0518799	-0.0518799	
-0.0546265	-0.0549316	
-0.0567627	-0.0595093	
-0.0564575	-0.0590515	
-0.0616455	-0.058136	
-0.0619507	-0.0598145	
-0.0613403	-0.0619507	
-0.0646973	-0.0604248	
-0.0668335	-0.0602722	
-0.065918	-0.0602722	
-0.0665283	-0.0585938	
-0.0704956	-0.0517273	
-0.0695801	-0.0482178	
-0.0717163	-0.0486755	
-0.0708008	-0.0508118	
-0.0708008	-0.0508118	
-0.0714111	-0.050354	
-0.0744629	-0.0506592	
-0.0747681	-0.0512695	
-0.0759888	-0.0572205	
-0.0762939	-0.062561	
-0.0756836	-0.0637817	
-0.0787354	-0.0616455	
-0.0769043	-0.0588989	
-0.0805664	-0.058136	
-0.0805664	-0.0598145	
-0.0811768	-0.0621033	
-0.0808716	-0.0613403	
-0.0842285	-0.0601196	
-0.0857544	-0.0559998	
-0.0854492	-0.0515747	
-0.0854492	-0.052948	
-0.0878906	-0.0553894	
-0.0912476	-0.0552368	
-0.0909424	-0.0552368	
-0.0906372	-0.058136	
-0.0909424	-0.0579834	
-0.0942993	-0.0566101	
-0.0949097	-0.0575256	
-0.0952148	-0.057373	
-0.0952148	-0.0553894	
-0.09552	-0.0535583	
-0.0994873	-0.0570679	
-0.100708	-0.0582886	
-0.100403	-0.0601196	
-0.100708	-0.0602722	
-0.104675	-0.0579834	
-0.105591	-0.058136	
-0.108948	-0.0579834	
-0.109863	-0.0563049	
-0.110168	-0.055542	
-0.110474	-0.0544739	
-0.114746	-0.0517273	
-0.115356	-0.0492859	
-0.119629	-0.0524902	
-0.123596	-0.0532532	
-0.125122	-0.0534058	
-0.128174	-0.055542	
-0.129395	-0.0559998	
-0.132751	-0.055542	
-0.134583	-0.0563049	
-0.137634	-0.058136	
-0.140381	-0.0579834	
-0.143738	-0.057373	
-0.1474	-0.0553894	
-0.149536	-0.0517273	
-0.149536	-0.0476074	
-0.154114	-0.0505066	
-0.157471	-0.0552368	
-0.158997	-0.0578308	
-0.159302	-0.0584412	
-0.16449	-0.059967	
-0.16449	-0.062561	
-0.167236	-0.0640869	
-0.168762	-0.0650024	
-0.171814	-0.063324	
-0.174255	-0.0582886	
-0.178223	-0.0559998	
-0.179138	-0.057373	
-0.18219	-0.0559998	
-0.183411	-0.0552368	
-0.188293	-0.0549316	
-0.191956	-0.0572205	
-0.193787	-0.0596619	
-0.194092	-0.059967	
-0.198364	-0.058136	
-0.198975	-0.0576782	
-0.198364	-0.0582886	
-0.201111	-0.0579834	
-0.203552	-0.0563049	
-0.203857	-0.0553894	
-0.203857	-0.0538635	
-0.204468	-0.0575256	
-0.203552	-0.0578308	
-0.203857	-0.0556946	
-0.203857	-0.0552368	
-0.203552	-0.0544739	
-0.203552	-0.0559998	
-0.203857	-0.0553894	
-0.203857	-0.0558472	
-0.205078	-0.0598145	
-0.203552	-0.0587463	
-0.203552	-0.0553894	
-0.205688	-0.0534058	
-0.20813	-0.057373	
-0.207825	-0.0621033	
-0.20874	-0.0628662	
-0.208435	-0.0614929	
-0.208435	-0.0605774	
-0.208435	-0.0604248	
-0.213318	-0.0582886	
-0.213318	-0.0558472	
-0.216675	-0.0534058	
-0.218506	-0.0509644	
-0.218201	-0.0511169	
-0.220947	-0.0549316	
-0.223694	-0.057373	
-0.223083	-0.0575256	
-0.22644	-0.0553894	
-0.228271	-0.052948	
-0.228577	-0.0508118	
-0.233154	-0.0512695	
-0.236206	-0.0561523	
-0.237427	-0.0605774	
-0.238037	-0.0627136	
-0.238342	-0.063324	
-0.241394	-0.0630188	
-0.24292	-0.0611877	
-0.24292	-0.0584412	
-0.247498	-0.058136	
-0.247498	-0.0558472	
-0.248413	-0.0532532	
-0.248413	-0.0506592	
-0.25238	-0.0498962	
-0.252686	-0.0502014	
-0.257568	-0.0523376	
-0.257263	-0.0531006	
-0.257568	-0.0531006	
-0.26062	-0.0527954	
-0.262451	-0.0506592	
-0.262146	-0.0509644	
-0.262146	-0.0509644	
-0.265198	-0.0508118	
-0.267334	-0.0523376	
-0.267639	-0.0549316	
-0.267334	-0.0575256	
-0.270081	-0.0593567	
-0.272217	-0.0566101	
-0.275269	-0.0566101	
-0.277405	-0.0605774	
-0.276489	-0.0602722	
-0.2771	-0.0521851	
-0.27771	-0.0468445	
-0.281677	-0.0480652	
-0.282593	-0.0500488	
-0.281982	-0.0500488	
-0.28595	-0.0518799	
-0.28717	-0.0511169	
-0.28717	-0.0526428	
-0.287781	-0.0547791	
-0.292053	-0.0553894	
-0.291748	-0.0537109	
-0.291748	-0.0532532	
-0.292358	-0.0549316	
-0.293884	-0.0564575	
-0.295715	-0.0521851	
-0.296326	-0.0506592	
-0.296631	-0.052948	
-0.297241	-0.0578308	
-0.296631	-0.0621033	
-0.296326	-0.06073	
-0.296631	-0.0544739	
-0.301208	-0.0515747	
-0.301514	-0.0485229	
-0.301819	-0.0462341	
-0.302124	-0.0480652	
-0.302124	-0.0527954	
-0.301819	-0.0550842	
-0.301208	-0.0532532	
-0.302429	-0.0531006	
-0.302124	-0.0532532	
-0.302124	-0.0512695	
-0.302429	-0.0508118	
-0.302124	-0.0553894	
-0.301819	-0.0596619	
-0.302124	-0.0622559	
-0.301514	-0.0602722	
-0.302124	-0.0537109	
-0.301208	-0.0511169	
-0.301819	-0.0524902	
-0.304565	-0.052948	
-0.306702	-0.0546265	
-0.307007	-0.0601196	
-0.307007	-0.0627136	
-0.306702	-0.0613403	
-0.311279	-0.0585938	
-0.309448	-0.0558472	
-0.306702	-0.055542	
-0.308533	-0.0540161	
-0.311279	-0.0509644	
-0.308838	-0.0469971	
-0.308228	-0.0457764	
-0.31189	-0.04776	
-0.311584	-0.0483704	
-0.311584	-0.050354	
-0.310974	-0.0569153	
-0.31189	-0.0602722	
-0.311584	-0.06073	
-0.314941	-0.0592041	
-0.316162	-0.0575256	
-0.316772	-0.0556946	
-0.318298	-0.0556946	
-0.318604	-0.055542	
-0.321045	-0.0550842	
-0.32135	-0.0570679	
-0.32196	-0.0541687	
-0.325623	-0.0549316	
-0.326538	-0.0538635	
-0.326538	-0.0531006	
-0.326233	-0.0508118	
-0.326538	-0.0509644	
-0.330505	-0.0532532	
-0.331726	-0.0512695	
-0.328064	-0.052948	
-0.330811	-0.0553894	
-0.329895	-0.0531006	
-0.331116	-0.0535583	
-0.331726	-0.0559998	
-0.330811	-0.0592041	
-0.334167	-0.0559998	
-0.333252	-0.0534058	
-0.335388	-0.0538635	
-0.336304	-0.0531006	
-0.336304	-0.0532532	
-0.336304	-0.052948	
-0.336304	-0.0511169	
-0.337524	-0.0508118	
-0.33905	-0.0508118	
-0.341492	-0.0527954	
-0.341187	-0.0534058	
-0.341492	-0.0527954	
-0.341187	-0.0505066	
-0.341187	-0.0500488	
-0.341187	-0.0511169	
-0.341187	-0.0535583	
-0.340881	-0.0553894	
-0.340881	-0.0556946	
-0.340576	-0.0541687	
-0.343628	-0.0559998	
-0.343933	-0.058136	
-0.345154	-0.0582886	
-0.346375	-0.0558472	
-0.346069	-0.052948	
-0.346069	-0.0527954	
-0.34668	-0.0532532	
-0.346375	-0.0524902	
-0.346375	-0.0506592	
-0.349426	-0.0480652	
-0.350647	-0.0483704	
-0.350952	-0.0469971	
-0.351563	-0.0502014	
-0.351257	-0.0547791	
-0.350647	-0.057373	
-0.350952	-0.0576782	
-0.35553	-0.0552368	
-0.352783	-0.052948	
-0.35553	-0.052948	
-0.35614	-0.052948	
-0.355835	-0.0520325	
-0.35614	-0.0488281	
-0.35614	-0.0460815	
-0.357971	-0.0431824	
-0.358887	-0.0387573	
-0.356445	-0.0343323	
-0.357361	-0.0317383	
-0.355835	-0.0338745	
-0.356445	-0.0354004	
-0.355835	-0.0314331	
-0.35553	-0.0286865	
-0.35614	-0.0268555	
-0.354309	-0.0260925	
-0.356445	-0.0279236	
-0.351563	-0.0300598	
-0.350952	-0.0306702	
-0.350342	-0.0309753	
-0.351257	-0.0317383	
-0.346069	-0.0352478	
-0.348511	-0.0343323	
-0.346069	-0.0302124	
-0.346069	-0.0265503	
-0.341492	-0.0239563	
-0.341187	-0.0212097	
-0.339355	-0.0187683	
-0.336304	-0.0138855	
-0.335693	-0.00946045	
-0.332031	-0.00900269	
-0.331726	-0.00930786	
-0.326843	-0.00961304	
-0.326538	-0.00732422	
-0.326233	-0.00656128	
-0.325928	-0.00671387	
-0.326538	-0.0062561	
-0.326843	-0.00167847	
-0.325928	0.00518799	
-0.32135	0.012207	
-0.32074	0.0151062	
-0.32135	0.0177002	
-0.321655	0.0201416	
-0.321655	0.0248718	
-0.324707	0.0297546	
-0.326843	0.0308228	
-0.325623	0.0332642	
-0.325928	0.0379944	
-0.326233	0.0419617	
-0.325928	0.0424194	
-0.32959	0.0398254	
-0.331116	0.0398254	
-0.334167	0.0372314	
-0.335999	0.035553	
-0.336304	0.0389099	
-0.335693	0.0404358	
-0.336304	0.035553	
-0.339355	0.032959	
-0.340576	0.0390625	
-0.341492	0.0418091	
-0.341187	0.0413513	
-0.340881	0.0395203	
-0.340881	0.0331116	
-0.340881	0.0239563	
-0.340881	0.0180054	
-0.340576	0.015564	
-0.341492	0.0128174	
-0.341492	0.0062561	
-0.33844	0.00106812	
-0.337524	-0.00213623	
-0.336304	-0.0038147	
-0.336304	-0.00442505	
-0.335999	-0.00411987	
-0.335999	-0.00289917	
-0.335999	-0.00442505	
-0.335693	-0.0115967	
-0.333557	-0.0177002	
-0.330811	-0.0164795	
-0.331116	-0.0167847	
-0.331421	-0.0210571	
-0.331116	-0.0282288	
-0.328369	-0.0328064	
-0.327759	-0.0335693	
-0.330811	-0.0340271	
-0.32959	-0.0376892	
-0.326843	-0.0428772	
-0.331116	-0.0473022	
-0.328674	-0.0508118	
-0.331116	-0.0578308	
-0.331421	-0.0642395	
-0.331726	-0.0636292	
-0.334167	-0.063324	
-0.331421	-0.0656128	
-0.335388	-0.0668335	
-0.336304	-0.070343	
-0.336304	-0.0746155	
-0.336304	-0.0752258	
-0.339661	-0.0758362	
-0.340881	-0.0776672	
-0.341492	-0.0759888	
-0.344238	-0.0753784	
-0.345154	-0.0752258	
-0.345459	-0.0727844	
-0.346375	-0.0701904	
-0.345764	-0.0701904	
-0.346069	-0.0718689	
-0.34668	-0.0749207	
-0.345764	-0.0752258	
-0.350647	-0.0753784	
-0.351257	-0.0712585	
-0.350647	-0.0643921	
-0.350952	-0.0630188	
-0.351257	-0.0656128	
-0.351257	-0.0695801	
-0.350952	-0.0701904	
-0.350647	-0.0715637	
-0.354614	-0.0721741	
-0.356445	-0.0727844	
-0.35614	-0.072937	
-0.35553	-0.0714111	
-0.355835	-0.071106	
-0.35614	-0.0720215	
-0.355835	-0.0682068	
-0.35614	-0.0672913	
-0.35614	-0.0718689	
-0.355835	-0.0740051	
-0.355835	-0.071106	
-0.356445	-0.067749	
-0.35614	-0.0663757	
-0.355225	-0.0668335	
-0.350952	-0.0650024	
-0.351257	-0.0630188	
-0.350647	-0.0630188	
-0.349426	-0.0631714	
-0.348206	-0.0608826	
-0.345459	-0.0610352	
-0.345764	-0.0634766	
-0.345459	-0.0674438	
-0.345764	-0.0679016	
-0.346375	-0.067749	
-0.346069	-0.067749	
-0.344543	-0.0680542	
-0.345459	-0.0723267	
-0.346375	-0.0743103	
-0.346375	-0.0686646	
-0.345764	-0.0654602	
-0.346069	-0.0631714	
-0.345764	-0.0634766	
-0.346375	-0.0636292	
-0.346069	-0.0613403	
-0.346069	-0.0590515	
-0.345764	-0.0566101	
-0.345764	-0.0567627	
-0.343018	-0.0582886	
-0.343933	-0.0619507	
-0.340881	-0.0624084	
-0.340576	-0.06073	
-0.341492	-0.0604248	
-0.340881	-0.0588989	
-0.341492	-0.0576782	
-0.339966	-0.0585938	
-0.341187	-0.0579834	
-0.341187	-0.0579834	
-0.341492	-0.0567627	
-0.341797	-0.0582886	
-0.341492	-0.0575256	
-0.340576	-0.0511169	
-0.341187	-0.0465393	
-0.340881	-0.0434875	
-0.341187	-0.0337219	
-0.340576	-0.0218201	
-0.341187	-0.00778198	
-0.341187	0.00656128	
-0.340576	0.0170898	
-0.340881	0.0267029	
-0.341492	0.0337219	
-0.340881	0.0326538	
-0.33783	0.0282288	
-0.336304	0.0279236	
-0.336304	0.0315857	
-0.335388	0.03479	
-0.336304	0.0390625	
-0.334473	0.0422668	
-0.335693	0.0534058	
-0.332031	0.0695801	
-0.331421	0.0874329	
-0.331726	0.108948	
-0.331116	0.127106	
-0.331421	0.142059	
-0.330811	0.15152	
-0.330811	0.161133	
-0.331116	0.17746	
-0.330811	0.198364	
-0.329895	0.22995	
-0.328064	0.267029	
-0.326843	0.304565	
-0.327759	0.343018	
-0.326843	0.377655	
-0.327759	0.40451	
-0.326233	0.422821	
-0.325623	0.435791	
-0.326538	0.44754	
-0.326233	0.456543	
-0.326538	0.476532	
-0.325623	0.499878	
-0.325928	0.508728	
-0.326233	0.492554	
-0.326538	0.451508	
-0.324707	0.401611	
-0.326538	0.335083	
-0.326538	0.250549	
-0.326233	0.166626	
-0.329895	0.106049	
-0.331116	0.0738525	
-0.3302	0.0588989	
-0.330811	0.0502014	
-0.330811	0.0430298	
-0.330811	0.0354004	
-0.331116	0.0271606	
-0.333862	0.0111389	
-0.331421	-0.0112915	
-0.335388	-0.0314331	
-0.335999	-0.0401306	
-0.335693	-0.043335	
-0.332031	-0.0480652	
-0.332947	-0.0538635	
-0.331116	-0.070343	
-0.332947	-0.102692	
-0.336304	-0.149841	
-0.335388	-0.191803	
-0.335999	-0.207672	
-0.336609	-0.197449	
-0.336304	-0.174713	
-0.336304	-0.149841	
-0.335999	-0.12619	
-0.336609	-0.101929	
-0.336304	-0.0791931	
-0.335999	-0.0610352	
-0.335388	-0.0469971	
-0.336304	-0.0408936	
-0.335999	-0.0363159	
-0.334473	-0.0366211	
-0.335693	-0.039978	
-0.336304	-0.0434875	
-0.335999	-0.0474548	
-0.335999	-0.0485229	
-0.336609	-0.0506592	
-0.331116	-0.0526428	
-0.331421	-0.0549316	
-0.331116	-0.0576782	
-0.331116	-0.0621033	
-0.331116	-0.062561	
-0.326843	-0.0608826	
-0.326233	-0.062561	
-0.325928	-0.0636292	
-0.325928	-0.0637817	
-0.32196	-0.0628662	
-0.32196	-0.0631714	
-0.318604	-0.0628662	
-0.316772	-0.0648499	
-0.313721	-0.0701904	
-0.31189	-0.0721741	
-0.308533	-0.0686646	
-0.306702	-0.0657654	
-0.30365	-0.0605774	
-0.301514	-0.0582886	
-0.296936	-0.058136	
-0.296631	-0.0578308	
-0.292358	-0.0543213	
-0.289612	-0.0553894	
-0.286255	-0.0553894	
-0.286865	-0.0537109	
-0.284729	-0.0527954	
-0.282593	-0.0512695	
-0.279236	-0.0532532	
-0.277405	-0.0537109	
-0.27771	-0.0549316	
-0.2771	-0.0534058	
-0.27771	-0.0511169	
-0.277405	-0.0506592	
-0.2771	-0.0506592	
-0.276794	-0.050354	
-0.271912	-0.0479126	
-0.276794	-0.0439453	
-0.274353	-0.0390625	
-0.276184	-0.0384521	
-0.27771	-0.0402832	
-0.275879	-0.0386047	
-0.27771	-0.0361633	
-0.277405	-0.0337219	
-0.277405	-0.0311279	
-0.277405	-0.0285339	
-0.2771	-0.0268555	
-0.280151	-0.0267029	
-0.282288	-0.0279236	
-0.280457	-0.0289917	
-0.282288	-0.0323486	
-0.282593	-0.0325012	
-0.286255	-0.0314331	
-0.286865	-0.0340271	
-0.286865	-0.0360107	
-0.287476	-0.0357056	
-0.291748	-0.0297546	
-0.289612	-0.0260925	
-0.291138	-0.0221252	
-0.292358	-0.0192261	
-0.295105	-0.0141907	
-0.295715	-0.0112915	
-0.294189	-0.0088501	
-0.296326	-0.00854492	
-0.296936	-0.00915527	
-0.300598	-0.0112915	
-0.301819	-0.0135803	
-0.302124	-0.0141907	
-0.306091	-0.0114441	
-0.307312	-0.0114441	
-0.307312	-0.0134277	
-0.312195	-0.0144958	
-0.311584	-0.0163269	
-0.31189	-0.0158691	
-0.31189	-0.0141907	
-0.311584	-0.0157166	
-0.314941	-0.0160217	
-0.314941	-0.0123596	
-0.31311	-0.0111389	
-0.316467	-0.00915527	
-0.316162	-0.00732422	
-0.316467	-0.00671387	
-0.316467	-0.00610352	
-0.316467	-0.00396729	
-0.318604	-0.00198364	
-0.321655	-0.00167847	
-0.321655	0	
-0.32135	-0.000915527	
-0.321655	-0.00198364	
-0.32196	-0.00183105	
-0.32135	-0.00183105	
-0.32196	-0.00244141	
-0.32135	-0.00595093	
-0.32135	-0.00610352	
-0.320435	-0.00396729	
-0.324402	-0.0038147	
-0.326538	-0.0038147	
-0.326538	0.000305176	
-0.326538	0.00686646	
-0.326843	0.0108337	
-0.323486	0.0128174	
-0.322876	0.0126648	
-0.32135	0.0143433	
-0.32196	0.0131226	
-0.318604	0.01297	
-0.317078	0.0131226	
-0.316467	0.0114441	
-0.316162	0.0102234	
-0.315552	0.0108337	
-0.3125	0.0151062	
-0.311279	0.0190735	
-0.311584	0.0201416	
-0.311584	0.0177002	
-0.311584	0.0154114	
-0.309143	0.0154114	
-0.310669	0.0151062	
-0.31189	0.0157166	
-0.311584	0.019989	
-0.311279	0.0244141	
-0.311584	0.0270081	
-0.311584	0.0294495	
-0.311279	0.0315857	
-0.314941	0.0326538	
-0.312195	0.032959	
-0.311584	0.0300598	
-0.31189	0.0280762	
-0.311584	0.0282288	
-0.311584	0.030365	
-0.310669	0.0341797	
-0.307617	0.03479	
-0.306702	0.0346375	
-0.306702	0.0326538	
-0.303345	0.0328064	
-0.301514	0.0349426	
-0.301514	0.0354004	
-0.301819	0.0370789	
-0.300903	0.0387573	
-0.301514	0.037384	
-0.301819	0.0382996	
-0.299072	0.0427246	
-0.296631	0.0491333	
-0.296631	0.0514221	
-0.296631	0.0495911	
-0.298157	0.0492859	
-0.297546	0.0489807	
-0.301208	0.0474548	
-0.301819	0.0497437	
-0.302124	0.0543213	
-0.302124	0.0590515	
-0.30426	0.063324	
-0.305481	0.0642395	
-0.306702	0.0639343	
-0.306702	0.0619507	
-0.310059	0.0598145	
-0.310364	0.0578308	
-0.311279	0.0614929	
-0.311584	0.0657654	
-0.311584	0.0660706	
-0.310669	0.0637817	
-0.311279	0.0642395	
-0.311584	0.067749	
-0.314941	0.0730896	
-0.315247	0.0759888	
-0.316467	0.0762939	
-0.315857	0.0762939	
-0.316772	0.0782776	
-0.316162	0.0813293	
-0.316772	0.0840759	
-0.319519	0.0869751	
-0.321045	0.085907	
-0.321045	0.0860596	
-0.324707	0.0874329	
-0.322266	0.0881958	
-0.326233	0.0843811	
-0.326233	0.0840759	
-0.326233	0.0865173	
-0.326843	0.0881958	
-0.326538	0.091095	
-0.325928	0.0978088	
-0.32196	0.100555	
-0.32135	0.100555	
-0.316467	0.100555	
-0.316772	0.0965881	
-0.313416	0.0973511	
-0.311279	0.100861	
-0.31189	0.103912	
-0.311279	0.105133	
-0.308838	0.102997	
-0.307007	0.103149	
-0.306396	0.100861	
-0.307617	0.0982666	
-0.306396	0.100098	
-0.306702	0.103149	
-0.303345	0.10376	
-0.301819	0.101166	
-0.302734	0.100861	
-0.301514	0.100555	
-0.301819	0.100708	
-0.302124	0.100708	
-0.301514	0.098877	
-0.301514	0.098114	
-0.301819	0.100861	
-0.301514	0.102844	
-0.299683	0.101929	
-0.297241	0.103149	
-0.296936	0.105133	
-0.296631	0.105286	
-0.292664	0.100403	
-0.288391	0.0953674	
-0.28656	0.0889587	
-0.282898	0.0839233	
-0.278625	0.0805664	
-0.277405	0.0772095	
-0.274353	0.0746155	
-0.271912	0.0735474	
-0.267334	0.0694275	
-0.261841	0.0648499	
-0.257263	0.0622559	
-0.252686	0.0598145	
-0.244446	0.0570679	
-0.240173	0.0538635	
-0.233459	0.0494385	
-0.22522	0.045166	
-0.216064	0.0440979	
-0.209656	0.0421143	
-0.200806	0.035553	
-0.188599	0.0308228	
-0.177307	0.027771	
-0.163269	0.0209045	
-0.150757	0.0131226	
-0.134277	0.00610352	
-0.117798	0.00289917	
-0.098877	-0.00152588	
-0.0796509	-0.00686646	
-0.0604248	-0.0114441	
-0.0378418	-0.0134277	
-0.0119019	-0.0180054	
0.0119019	-0.0241089	
0.0415039	-0.0305176	
0.0708008	-0.0360107	
0.0997925	-0.0401306	
0.133057	-0.042572	
0.168457	-0.0434875	
0.201721	-0.0431824	
0.240173	-0.043335	
0.279236	-0.045929	
0.317383	-0.050354	
0.358276	-0.0549316	
0.401611	-0.0601196	
0.446167	-0.0604248	
0.489502	-0.0608826	
0.534668	-0.0645447	
0.578918	-0.0697327	
0.625916	-0.0738525	
0.675354	-0.0796509	
0.719299	-0.0817871	
0.768127	-0.0773621	
0.818176	-0.0712585	
0.866699	-0.0732422	
0.916138	-0.0798035	
0.962219	-0.0822449	
1.01349	-0.0802612	
1.06323	-0.0779724	
1.10931	-0.0776672	
1.15723	-0.0794983	
1.20544	-0.0817871	
1.25519	-0.0842285	
1.30005	-0.0869751	
1.34766	-0.0874329	
1.39465	-0.0875854	
1.44104	-0.0871277	
1.48285	-0.085907	
1.52527	-0.0849915	
1.56555	-0.0872803	
1.60522	-0.0918579	
1.64856	-0.0958252	
1.68365	-0.0942993	
1.71844	-0.0918579	
1.75385	-0.0897217	
1.78802	-0.0848389	
1.81732	-0.0802612	
1.84723	-0.0794983	
1.87714	-0.0794983	
1.90369	-0.0769043	
1.92749	-0.0750732	
1.9519	-0.0750732	
1.97662	-0.0752258	
2.00134	-0.0752258	
2.02057	-0.0767517	
2.03644	-0.0801086	
2.05505	-0.08255	
2.07184	-0.0808716	
2.08679	-0.0801086	
2.10144	-0.0782776	
2.11151	-0.0796509	
2.12097	-0.0802612	
2.13074	-0.0778198	
2.13959	-0.0735474	
2.14539	-0.0727844	
2.15057	-0.0727844	
2.15637	-0.0724792	
2.16217	-0.0727844	
2.16309	-0.0708008	
2.16187	-0.070343	
2.16156	-0.0694275	
2.16156	-0.0645447	
2.15698	-0.0654602	
2.15363	-0.0656128	
2.14691	-0.0645447	
2.13928	-0.065155	
2.13165	-0.0646973	
2.12402	-0.0627136	
2.11517	-0.0628662	
2.10449	-0.0648499	
2.09106	-0.0646973	
2.07764	-0.0631714	
2.06573	-0.063324	
2.0517	-0.0653076	
2.03735	-0.0657654	
2.02148	-0.0617981	
2.00409	-0.0596619	
1.98547	-0.0579834	
1.96838	-0.0578308	
1.94977	-0.0559998	
1.93054	-0.055542	
1.90979	-0.0553894	
1.88629	-0.0556946	
1.86798	-0.0543213	
1.84296	-0.0563049	
1.81885	-0.0576782	
1.79718	-0.0595093	
1.77277	-0.0578308	
1.74866	-0.0558472	
1.72089	-0.0537109	
1.69525	-0.0527954	
1.67053	-0.0517273	
1.64581	-0.0502014	
1.62231	-0.0483704	
1.59576	-0.0483704	
1.57196	-0.0502014	
1.54358	-0.052948	
1.51489	-0.0532532	
1.49017	-0.050354	
1.46484	-0.0483704	
1.43677	-0.0465393	
1.41174	-0.0476074	
1.38763	-0.0502014	
1.362	-0.0502014	
1.33667	-0.0480652	
1.31226	-0.0457764	
1.28662	-0.0462341	
1.26221	-0.0479126	
1.23779	-0.0485229	
1.2149	-0.0479126	
1.19354	-0.0462341	
1.17065	-0.0482178	
1.14532	-0.0480652	
1.12183	-0.0482178	
1.10046	-0.0483704	
1.08032	-0.0465393	
1.05774	-0.0436401	
1.03912	-0.0431824	
1.01807	-0.0427246	
0.997314	-0.0410461	
0.978088	-0.0408936	
0.957642	-0.0390625	
0.941162	-0.0401306	
0.923767	-0.0408936	
0.904236	-0.0415039	
0.887451	-0.0427246	
0.869446	-0.0410461	
0.85022	-0.0387573	
0.83313	-0.0386047	
0.815735	-0.0384521	
0.79895	-0.0382996	
0.78125	-0.0370789	
0.76355	-0.0382996	
0.74646	-0.0393677	
0.727844	-0.0389099	
0.711365	-0.0386047	
0.695801	-0.0386047	
0.678406	-0.0361633	
0.663452	-0.0311279	
0.651245	-0.0286865	
0.63385	-0.0286865	
0.622559	-0.030365	
0.606995	-0.0315857	
0.592957	-0.0340271	
0.579529	-0.0358582	
0.567627	-0.0360107	
0.556641	-0.0341797	
0.544128	-0.0332642	
0.534058	-0.0341797	
0.523682	-0.035553	
0.509949	-0.038147	
0.499878	-0.0382996	
0.489197	-0.0386047	
0.480652	-0.0386047	
0.474243	-0.0386047	
0.464172	-0.0379944	
0.455017	-0.0361633	
0.448303	-0.0340271	
0.438538	-0.0335693	
0.431519	-0.0337219	
0.424194	-0.0311279	
0.415649	-0.0286865	
0.408325	-0.0268555	
0.401001	-0.0263977	
0.393982	-0.0267029	
0.386963	-0.0285339	
0.381775	-0.0286865	
0.375061	-0.0311279	
0.370789	-0.0354004	
0.362549	-0.0361633	
0.357971	-0.0344849	
0.35553	-0.038147	
0.350342	-0.0384521	
0.345459	-0.038147	
0.340881	-0.0384521	
0.337524	-0.0358582	
0.332336	-0.0335693	
0.328064	-0.0337219	
0.325928	-0.032959	
0.320435	-0.0309753	
0.315857	-0.0300598	
0.311279	-0.0283813	
0.307922	-0.0267029	
0.306396	-0.0280762	
0.30365	-0.0302124	
0.301208	-0.0331116	
0.297241	-0.0337219	
0.296326	-0.0340271	
0.291443	-0.0376892	
0.291748	-0.038147	
0.288086	-0.0367737	
0.28717	-0.0340271	
0.283508	-0.0335693	
0.281677	-0.0315857	
0.281372	-0.0294495	
0.2771	-0.0285339	
0.273743	-0.0309753	
0.271301	-0.032959	
0.267639	-0.0305176	
0.263977	-0.0292969	
0.262146	-0.0332642	
0.259094	-0.0376892	
0.257263	-0.038147	
0.252686	-0.0389099	
0.25177	-0.0364685	
0.247803	-0.0360107	
0.24292	-0.0341797	
0.241699	-0.0337219	
0.238342	-0.0340271	
0.237122	-0.037384	
0.233154	-0.0361633	
0.228577	-0.03479	
0.227051	-0.0363159	
0.222473	-0.0382996	
0.218506	-0.0398254	
0.213318	-0.0379944	
0.20813	-0.0335693	
0.204163	-0.0315857	
0.2005	-0.0335693	
0.198669	-0.0338745	
0.193787	-0.0328064	
0.189209	-0.0320435	
0.185547	-0.0358582	
0.183105	-0.0382996	
0.179138	-0.0389099	
0.179443	-0.040741	
0.174561	-0.0415039	
0.17334	-0.0437927	
0.169373	-0.0476074	
0.166626	-0.0483704	
0.16449	-0.0463867	
0.158997	-0.0454712	
0.15625	-0.0415039	
0.154114	-0.0387573	
0.150452	-0.0364685	
0.149536	-0.0361633	
0.144958	-0.0366211	
0.144348	-0.0363159	
0.141602	-0.0361633	
0.140991	-0.0360107	
0.139465	-0.0360107	
0.136719	-0.0338745	
0.136414	-0.0341797	
0.134888	-0.0370789	
0.134888	-0.0389099	
0.135193	-0.0410461	
0.134583	-0.040741	
0.134888	-0.0427246	
0.131226	-0.0437927	
0.132446	-0.0436401	
0.130005	-0.0434875	
0.130005	-0.0434875	
0.131836	-0.0447083	
0.1297	-0.0431824	
0.132446	-0.042572	
0.133057	-0.0389099	
0.133667	-0.0361633	
0.13031	-0.037384	
0.1297	-0.0430298	
0.1297	-0.0456238	
0.1297	-0.0454712	
0.1297	-0.0430298	
0.1297	-0.0384521	
0.1297	-0.0378418	
0.13031	-0.040741	
0.130005	-0.0404358	
0.129089	-0.0369263	
0.130005	-0.0335693	
0.1297	-0.0291443	
0.129395	-0.0296021	
0.125427	-0.0334167	
0.124512	-0.0382996	
0.125122	-0.0427246	
0.124817	-0.0431824	
0.124817	-0.0418091	
0.125427	-0.0390625	
0.124817	-0.0386047	
0.124817	-0.0401306	
0.125732	-0.0416565	
0.125122	-0.0428772	
0.124817	-0.0408936	
0.125122	-0.040741	
0.124817	-0.0408936	
0.125122	-0.040741	
0.125122	-0.040741	
0.125427	-0.040741	
0.124512	-0.0418091	
0.124817	-0.0453186	
0.124512	-0.0453186	
0.125122	-0.0434875	
0.124817	-0.045166	
0.125122	-0.0474548	
0.124817	-0.0466919	
0.124817	-0.0439453	
0.124817	-0.0424194	
0.125122	-0.0437927	
0.125427	-0.045929	
0.130005	-0.045929	
0.130615	-0.045929	
0.134583	-0.0457764	
0.139465	-0.0456238	
0.143433	-0.0457764	
0.14801	-0.0442505	
0.149536	-0.0428772	
0.154419	-0.040741	
0.157166	-0.0410461	
0.162659	-0.0386047	
0.16449	-0.0384521	
0.172119	-0.0401306	
0.174866	-0.0418091	
0.177612	-0.0421143	
0.179749	-0.0419617	
0.184326	-0.043335	
0.188293	-0.0436401	
0.189209	-0.045929	
0.193176	-0.0474548	
0.192871	-0.0454712	
0.193481	-0.0411987	
0.198364	-0.0384521	
0.198975	-0.0384521	
0.202942	-0.0372314	
0.202026	-0.038147	
0.203552	-0.0376892	
0.203552	-0.0361633	
0.206604	-0.0366211	
0.208435	-0.0389099	
0.20874	-0.0428772	
0.20874	-0.0427246	
0.20874	-0.0410461	
0.20874	-0.0402832	
0.212097	-0.0402832	
0.209961	-0.0431824	
0.20874	-0.0457764	
0.208435	-0.0431824	
0.20874	-0.0408936	
0.209045	-0.0402832	
0.20874	-0.0384521	
0.209351	-0.0404358	
0.207825	-0.0428772	
0.206299	-0.0434875	
0.204163	-0.0427246	
0.203857	-0.037384	
0.203247	-0.0361633	
0.204163	-0.0384521	
0.201111	-0.0387573	
0.198059	-0.0411987	
0.198364	-0.0436401	
0.198364	-0.0456238	
0.194092	-0.0476074	
0.193787	-0.0453186	
0.188599	-0.0430298	
0.185852	-0.0395203	
0.183716	-0.0358582	
0.184631	-0.0343323	
0.180664	-0.0363159	
0.179138	-0.0402832	
0.176086	-0.0387573	
0.173645	-0.038147	
0.173035	-0.0390625	
0.169678	-0.040741	
0.168152	-0.0404358	
0.164795	-0.0384521	
0.164185	-0.0387573	
0.160522	-0.0384521	
0.158997	-0.0384521	
0.154419	-0.0398254	
0.151978	-0.0360107	
0.145874	-0.0340271	
0.144958	-0.035553	
0.141602	-0.0384521	
0.136108	-0.0427246	
0.131226	-0.0453186	
0.130005	-0.045929	
0.125122	-0.0457764	
0.121765	-0.0439453	
0.116882	-0.043335	
0.111694	-0.0439453	
0.106201	-0.0439453	
0.101318	-0.0413513	
0.0994873	-0.0415039	
0.0946045	-0.043335	
0.0900269	-0.0431824	
0.0854492	-0.0413513	
0.0814819	-0.0410461	
0.0772095	-0.0419617	
0.0720215	-0.0419617	
0.0683594	-0.0434875	
0.065918	-0.0476074	
0.0588989	-0.0500488	
0.0570679	-0.0511169	
0.0534058	-0.0500488	
0.0482178	-0.0483704	
0.0463867	-0.04776	
0.0418091	-0.0473022	
0.038147	-0.045166	
0.0369263	-0.0408936	
0.0332642	-0.0386047	
0.0317383	-0.0382996	
0.0286865	-0.0402832	
0.027771	-0.0408936	
0.0234985	-0.0408936	
0.0192261	-0.0415039	
0.0210571	-0.0436401	
0.017395	-0.0413513	
0.0161743	-0.0389099	
0.0125122	-0.0389099	
0.0119019	-0.0434875	
0.0106812	-0.0445557	
0.00762939	-0.0439453	
0.00701904	-0.0453186	
0.00305176	-0.0457764	
-0.000915527	-0.0439453	
-0.00244141	-0.0422668	
-0.00305176	-0.0454712	
-0.00701904	-0.0476074	
-0.00793457	-0.0476074	
-0.0125122	-0.045929	
-0.0158691	-0.0444031	
-0.0177002	-0.0413513	
-0.022583	-0.0387573	
-0.0271606	-0.0410461	
-0.0308228	-0.0454712	
-0.0323486	-0.0453186	
-0.0369263	-0.0427246	
-0.0375366	-0.0424194	
-0.0421143	-0.0434875	
-0.0463867	-0.0444031	
-0.0518799	-0.0457764	
-0.0521851	-0.0471497	
-0.0598145	-0.0444031	
-0.0619507	-0.0415039	
-0.0665283	-0.0408936	
-0.0701904	-0.0428772	
-0.0720215	-0.0447083	
-0.0759888	-0.0488281	
-0.0805664	-0.0508118	
-0.0845337	-0.0469971	
-0.0863647	-0.0437927	
-0.0906372	-0.0453186	
-0.0909424	-0.0457764	
-0.0909424	-0.045929	
-0.0949097	-0.0456238	
-0.0958252	-0.045166	
-0.0961304	-0.0436401	
-0.100098	-0.0430298	
-0.101013	-0.0405884	
-0.100403	-0.0408936	
-0.100098	-0.0436401	
-0.100403	-0.0474548	
-0.100098	-0.0485229	
-0.100403	-0.0486755	
-0.102539	-0.0485229	
-0.101624	-0.045929	
-0.10437	-0.0418091	
-0.10498	-0.0419617	
-0.10376	-0.0456238	
-0.10498	-0.0476074	
-0.10498	-0.045929	
-0.105591	-0.0439453	
-0.10498	-0.0431824	
-0.105286	-0.0436401	
-0.105286	-0.0453186	
-0.108948	-0.0460815	
-0.109863	-0.0473022	
-0.109863	-0.0460815	
-0.111694	-0.045166	
-0.114441	-0.0454712	
-0.115662	-0.045929	
-0.120239	-0.0450134	
-0.120239	-0.0395203	
-0.123291	-0.0395203	
-0.124207	-0.0410461	
-0.125122	-0.0437927	
-0.125122	-0.0462341	
-0.127869	-0.0483704	
-0.1297	-0.0482178	
-0.129395	-0.0482178	
-0.133667	-0.0460815	
-0.134583	-0.04776	
-0.134888	-0.0476074	
-0.135498	-0.0439453	
-0.13916	-0.0413513	
-0.140076	-0.0408936	
-0.140076	-0.0415039	
-0.139465	-0.043335	
-0.139465	-0.043335	
-0.139771	-0.043335	
-0.139771	-0.0440979	
-0.139771	-0.0465393	
-0.139465	-0.0494385	
-0.136414	-0.0457764	
-0.135193	-0.0411987	
-0.134583	-0.0384521	
-0.135193	-0.0389099	
-0.134888	-0.043335	
-0.134888	-0.04776	
-0.135193	-0.0482178	
-0.135193	-0.0474548	
-0.134888	-0.0440979	
-0.134888	-0.0408936	
-0.135498	-0.0384521	
-0.135193	-0.0390625	
-0.134583	-0.0410461	
-0.134888	-0.0444031	
-0.134888	-0.0498962	
-0.135498	-0.0527954	
-0.139465	-0.0508118	
-0.139771	-0.0463867	
-0.140076	-0.045166	
-0.140381	-0.043335	
-0.139771	-0.0431824	
-0.140381	-0.0437927	
-0.139771	-0.0463867	
-0.13916	-0.0473022	
-0.139771	-0.0454712	
-0.13916	-0.0434875	
-0.140076	-0.0428772	
-0.143127	-0.040741	
-0.144348	-0.0415039	
-0.144958	-0.0434875	
-0.14801	-0.0456238	
-0.148315	-0.0442505	
-0.149841	-0.0428772	
-0.154419	-0.0410461	
-0.154419	-0.0392151	
-0.158691	-0.0411987	
-0.159607	-0.045929	
-0.164185	-0.0486755	
-0.163879	-0.0527954	
-0.168457	-0.052948	
-0.169373	-0.052948	
-0.170288	-0.0526428	
-0.173645	-0.0489807	
-0.174255	-0.0476074	
-0.174866	-0.0457764	
-0.178833	-0.045929	
-0.179138	-0.0456238	
-0.179749	-0.043335	
-0.184021	-0.043335	
-0.184021	-0.0434875	
-0.183105	-0.0408936	
-0.184326	-0.0386047	
-0.183716	-0.0382996	
-0.183716	-0.0386047	
-0.183411	-0.0364685	
-0.183716	-0.0360107	
-0.184631	-0.0354004	
-0.184326	-0.0317383	
-0.184021	-0.0314331	
-0.183716	-0.0286865	
-0.184021	-0.0265503	
-0.184021	-0.0256348	
-0.183716	-0.0233459	
-0.184021	-0.0238037	
-0.183716	-0.0241089	
-0.183716	-0.0256348	
-0.184631	-0.0256348	
-0.183716	-0.0221252	
-0.184326	-0.0213623	
-0.181274	-0.0215149	
-0.18158	-0.0205994	
-0.179443	-0.0183105	
-0.179443	-0.0144958	
-0.178223	-0.0141907	
-0.174255	-0.0120544	
-0.17395	-0.0135803	
-0.17395	-0.0137329	
-0.170898	-0.0141907	
-0.173645	-0.0119019	
-0.173645	-0.00900269	
-0.168762	-0.0062561	
-0.172424	-0.00228882	
-0.173645	0.000152588	
-0.169983	0.00152588	
-0.17334	0.00289917	
-0.174561	0.00305176	
-0.176392	0.0050354	
-0.177917	0.00991821	
-0.178833	0.0169373	
-0.18219	0.0216675	
-0.183716	0.0230408	
-0.187683	0.0209045	
-0.188904	0.0224304	
-0.192871	0.0231934	
-0.194092	0.030365	
-0.198364	0.037384	
-0.198975	0.0405884	
-0.202026	0.0411987	
-0.203857	0.0372314	
-0.20813	0.0349426	
-0.20874	0.0350952	
-0.209045	0.0379944	
-0.213318	0.0415039	
-0.213013	0.0415039	
-0.213013	0.0378418	
-0.213623	0.0352478	
-0.218506	0.035553	
-0.219116	0.0398254	
-0.218811	0.0444031	
-0.218811	0.0491333	
-0.218506	0.0492859	
-0.218506	0.0410461	
-0.218201	0.0300598	
-0.217896	0.0209045	
-0.218506	0.0177002	
-0.218811	0.0151062	
-0.218201	0.00808716	
-0.218506	0.00244141	
-0.222168	-0.00198364	
-0.222778	-0.0050354	
-0.223083	-0.00656128	
-0.223389	-0.00671387	
-0.227051	-0.00656128	
-0.228577	-0.00671387	
-0.227661	-0.00930786	
-0.227966	-0.0112915	
-0.228577	-0.0112915	
-0.228882	-0.012207	
-0.228577	-0.015564	
-0.228882	-0.0161743	
-0.228882	-0.0170898	
-0.228271	-0.0213623	
-0.227966	-0.0291443	
-0.229492	-0.03479	
-0.231018	-0.0402832	
-0.228271	-0.0413513	
-0.228882	-0.0456238	
-0.231628	-0.0517273	
-0.231323	-0.0579834	
-0.232239	-0.0648499	
-0.233459	-0.070343	
-0.232849	-0.0753784	
-0.233154	-0.0776672	
-0.23468	-0.0779724	
-0.237732	-0.0794983	
-0.237427	-0.0837708	
-0.238342	-0.0868225	
-0.237732	-0.0856018	
-0.242004	-0.0822449	
-0.242615	-0.078125	
-0.243835	-0.0759888	
-0.244751	-0.0746155	
-0.244446	-0.0727844	
-0.246582	-0.0747681	
-0.246277	-0.0747681	
-0.247192	-0.0749207	
-0.248413	-0.0752258	
-0.247498	-0.0744629	
-0.247498	-0.0735474	
-0.247498	-0.0750732	
-0.247192	-0.0759888	
-0.246887	-0.0758362	
-0.247192	-0.072937	
-0.24353	-0.0714111	
-0.243835	-0.0749207	
-0.245361	-0.0772095	
-0.246277	-0.0779724	
-0.247498	-0.0758362	
-0.247498	-0.0747681	
-0.247498	-0.0727844	
-0.248108	-0.0721741	
-0.252686	-0.071106	
-0.252686	-0.0733948	
-0.252991	-0.0750732	
-0.257263	-0.0765991	
-0.257568	-0.075531	
-0.257874	-0.0752258	
-0.257874	-0.0750732	
-0.257568	-0.0750732	
-0.260925	-0.0772095	
-0.262756	-0.0778198	
-0.262146	-0.0770569	
-0.261841	-0.0752258	
-0.261841	-0.0726318	
-0.263062	-0.0688171	
-0.262756	-0.0657654	
-0.262146	-0.0653076	
-0.262451	-0.0663757	
-0.263062	-0.0656128	
-0.266724	-0.0645447	
-0.267639	-0.0631714	
-0.266113	-0.0619507	
-0.266418	-0.0637817	
-0.267334	-0.0660706	
-0.267334	-0.0680542	
-0.267334	-0.0679016	
-0.267639	-0.0712585	
-0.267639	-0.0775146	
-0.266724	-0.0775146	
-0.266418	-0.0735474	
-0.263672	-0.0688171	
-0.262451	-0.0672913	
-0.262756	-0.0654602	
-0.262756	-0.0654602	
-0.261841	-0.0672913	
-0.26062	-0.067749	
-0.262451	-0.0654602	
-0.259094	-0.0650024	
-0.258179	-0.0634766	
-0.257263	-0.0645447	
-0.257568	-0.0668335	
-0.258179	-0.0653076	
-0.257568	-0.0653076	
-0.257874	-0.0654602	
-0.253601	-0.0653076	
-0.25238	-0.0634766	
-0.252686	-0.0616455	
-0.255127	-0.0613403	
-0.252991	-0.0576782	
-0.252686	-0.052948	
-0.252686	-0.0480652	
-0.252075	-0.0427246	
-0.252686	-0.0331116	
-0.252686	-0.0216675	
-0.252075	-0.0119019	
-0.252686	-0.00396729	
-0.253296	0.00564575	
-0.256958	0.0149536	
-0.257874	0.0177002	
-0.257263	0.0152588	
-0.258179	0.01297	
-0.26123	0.0126648	
-0.262451	0.0154114	
-0.263062	0.020752	
-0.266724	0.0305176	
-0.267334	0.0372314	
-0.267029	0.0462341	
-0.270996	0.0563049	
-0.271606	0.0648499	
-0.271912	0.0769043	
-0.272522	0.090332	
-0.272522	0.100098	
-0.271912	0.106506	
-0.273132	0.114441	
-0.273132	0.132751	
-0.272522	0.163574	
-0.275574	0.199738	
-0.277405	0.241241	
-0.277405	0.288544	
-0.278015	0.328979	
-0.276489	0.36377	
-0.276794	0.394745	
-0.276794	0.422974	
-0.277405	0.440521	
-0.27771	0.449219	
-0.278015	0.459137	
-0.279236	0.473938	
-0.281372	0.491333	
-0.281677	0.498199	
-0.282593	0.488586	
-0.282593	0.469055	
-0.281982	0.437927	
-0.282593	0.39917	
-0.282288	0.349884	
-0.283508	0.282593	
-0.282288	0.211334	
-0.282593	0.14679	
-0.282593	0.0967407	
-0.282288	0.065155	
-0.282288	0.0480652	
-0.282593	0.0473022	
-0.281677	0.0543213	
-0.280762	0.062561	
-0.281677	0.0572205	
-0.27771	0.0398254	
-0.27771	0.0259399	
-0.281067	0.0201416	
-0.279846	0.012207	
-0.282288	-0.00213623	
-0.282288	-0.0189209	
-0.281982	-0.0428772	
-0.282593	-0.0788879	
-0.278931	-0.123444	
-0.278015	-0.169067	
-0.282288	-0.193176	
-0.279236	-0.194397	
-0.2771	-0.180206	
-0.2771	-0.159454	
-0.27771	-0.135651	
-0.277405	-0.112	
-0.277405	-0.0917053	
-0.2771	-0.0750732	
-0.274658	-0.0646973	
-0.273132	-0.0585938	
-0.275269	-0.0575256	
-0.273132	-0.0566101	
-0.276794	-0.0588989	
-0.2771	-0.0657654	
-0.276794	-0.0727844	
-0.277405	-0.0772095	
-0.280457	-0.0784302	
-0.278625	-0.0816345	
-0.281982	-0.08255	
-0.282593	-0.0819397	
-0.28595	-0.0819397	
-0.28656	-0.0834656	
-0.286865	-0.0856018	
-0.28656	-0.0872803	
-0.287476	-0.0837708	
-0.292053	-0.0808716	
-0.291748	-0.0782776	
-0.292053	-0.0776672	
-0.292053	-0.0805664	
-0.292664	-0.0834656	
-0.296021	-0.0843811	
-0.29541	-0.0831604	
-0.293884	-0.0820923	
-0.295715	-0.0773621	
-0.297241	-0.0730896	
-0.296631	-0.0724792	
-0.296936	-0.0746155	
-0.296631	-0.0750732	
-0.297241	-0.0746155	
-0.297241	-0.0724792	
-0.297241	-0.0727844	
-0.299683	-0.0727844	
-0.300903	-0.0706482	
-0.299683	-0.0694275	
-0.301514	-0.0675964	
-0.301819	-0.063324	
-0.302124	-0.0613403	
-0.301819	-0.0596619	
-0.302429	-0.058136	
-0.302124	-0.0601196	
-0.301208	-0.0584412	
-0.301514	-0.0579834	
-0.301819	-0.0585938	
-0.301819	-0.0617981	
-0.300903	-0.0588989	
-0.300598	-0.0556946	
-0.301208	-0.0511169	
-0.301514	-0.0514221	
-0.301819	-0.0537109	
-0.301819	-0.0546265	
-0.302124	-0.0532532	
-0.300903	-0.0485229	
-0.300293	-0.0444031	
-0.301514	-0.0428772	
-0.299988	-0.0428772	
-0.296936	-0.0411987	
-0.297546	-0.040741	
-0.298462	-0.0408936	
-0.296936	-0.0401306	
-0.296936	-0.0405884	
-0.296936	-0.0402832	
-0.296936	-0.0386047	
-0.296936	-0.0384521	
-0.296936	-0.0390625	
-0.297241	-0.0390625	
-0.296936	-0.0384521	
-0.297546	-0.0382996	
-0.300903	-0.0378418	
-0.300598	-0.0376892	
-0.298767	-0.0384521	
-0.301514	-0.0361633	
-0.302124	-0.0311279	
-0.304871	-0.0268555	
-0.303345	-0.0260925	
-0.30426	-0.0260925	
-0.305481	-0.0244141	
-0.303955	-0.0218201	
-0.306091	-0.0213623	
-0.306702	-0.0215149	
-0.306396	-0.0215149	
-0.307312	-0.0239563	
-0.309448	-0.0268555	
-0.310669	-0.0302124	
-0.310974	-0.0311279	
-0.311584	-0.0289917	
-0.31189	-0.0263977	
-0.316772	-0.0236511	
-0.317078	-0.0216675	
-0.32135	-0.0210571	
-0.321655	-0.0224304	
-0.32135	-0.0245667	
-0.321655	-0.0263977	
-0.32196	-0.0259399	
-0.322571	-0.0210571	
-0.32135	-0.0169373	
-0.321045	-0.015564	
-0.32135	-0.0149536	
-0.32135	-0.0137329	
-0.318604	-0.00991821	
-0.321045	-0.00946045	
-0.320129	-0.00976563	
-0.317078	-0.0120544	
-0.316467	-0.0144958	
-0.316467	-0.0164795	
-0.31311	-0.0166321	
-0.312195	-0.0134277	
-0.31189	-0.00961304	
-0.311279	-0.00686646	
-0.311279	-0.00595093	
-0.311279	-0.0038147	
-0.311279	-0.00274658	
-0.31189	-0.00350952	
-0.31189	-0.000915527	
-0.311279	0.00137329	
-0.31189	0.00305176	
-0.311584	0.00518799	
-0.311584	0.00579834	
-0.311584	0.0062561	
-0.311584	0.00823975	
-0.311584	0.0105286	
-0.312195	0.00946045	
-0.315857	0.00976563	
-0.314941	0.0100708	
-0.315247	0.0108337	
-0.316772	0.0117493	
-0.316772	0.010376	
-0.316467	0.00976563	
-0.316162	0.00747681	
-0.316467	0.00579834	
-0.319214	0.0062561	
-0.317383	0.01297	
-0.321045	0.0154114	
-0.32135	0.0151062	
-0.318604	0.018158	
-0.321655	0.018158	
-0.321655	0.0180054	
-0.320129	0.0177002	
-0.317078	0.0196838	
-0.320435	0.0221252	
-0.321045	0.0247192	
-0.32135	0.0271606	
-0.318909	0.0274658	
-0.318604	0.0256348	
-0.32074	0.0245667	
-0.316162	0.0227356	
-0.316467	0.0227356	
-0.316772	0.0274658	
-0.314331	0.0325012	
-0.315247	0.0346375	
-0.311584	0.032196	
-0.311279	0.0291443	
-0.31189	0.0273132	
-0.31189	0.0300598	
-0.311584	0.0350952	
-0.311584	0.039978	
-0.311279	0.0405884	
-0.312195	0.0398254	
-0.314941	0.0405884	
-0.316467	0.0418091	
-0.316772	0.0427246	
-0.316467	0.0450134	
-0.321045	0.0468445	
-0.322266	0.0488281	
-0.322876	0.0486755	
-0.325928	0.0468445	
-0.326538	0.0491333	
-0.326233	0.0520325	
-0.326538	0.0541687	
-0.329895	0.0564575	
-0.331116	0.0567627	
-0.331116	0.057373	
-0.331726	0.0617981	
-0.331726	0.065155	
-0.334778	0.0640869	
-0.331421	0.0639343	
-0.334167	0.0654602	
-0.331116	0.0714111	
-0.332031	0.0727844	
-0.332642	0.0733948	
-0.330505	0.0743103	
-0.330811	0.0727844	
-0.3302	0.0709534	
-0.32959	0.0683594	
-0.329285	0.0660706	
-0.326538	0.0643921	
-0.326538	0.065918	
-0.327759	0.0704956	
-0.328064	0.0723267	
-0.326233	0.075531	
-0.326233	0.075531	
-0.326538	0.0767517	
-0.325928	0.0794983	
-0.327148	0.0816345	
-0.330811	0.0834656	
-0.331116	0.0830078	
-0.331116	0.080719	
-0.326843	0.0793457	
-0.327454	0.0791931	
-0.325928	0.0788879	
-0.326233	0.0764465	
-0.326233	0.0744629	
-0.326538	0.0746155	
-0.326233	0.0764465	
-0.326233	0.0769043	
-0.322876	0.075531	
-0.321655	0.0732422	
-0.32135	0.0712585	
-0.321045	0.0695801	
-0.316467	0.0694275	
-0.315247	0.0689697	
-0.311584	0.0691223	
-0.307617	0.067749	
-0.305786	0.0697327	
-0.301819	0.0712585	
-0.296326	0.0697327	
-0.289001	0.0689697	
-0.286255	0.0683594	
-0.279236	0.0624084	
-0.272827	0.0570679	
-0.262756	0.0515747	
-0.256348	0.0479126	
-0.246582	0.0437927	
-0.233154	0.0411987	
-0.219727	0.0393677	
-0.205078	0.0367737	
-0.188904	0.0343323	
-0.170898	0.0320435	
-0.151062	0.0276184	
-0.131836	0.0231934	
-0.111389	0.0201416	
-0.0869751	0.0157166	
-0.062561	0.0154114	
-0.0344849	0.0125122	
-0.00488281	0.00961304	
0.0253296	0.00595093	
0.0582886	0.00274658	
0.0918579	-0.0038147	
0.126648	-0.00732422	
0.166321	-0.0137329	
0.202332	-0.0189209	
0.24353	-0.0233459	
0.28656	-0.0271606	
0.332031	-0.0311279	
0.377502	-0.0340271	
0.425415	-0.0378418	
0.478821	-0.0411987	
0.52887	-0.045929	
0.58197	-0.0506592	
0.635986	-0.0540161	
0.693359	-0.0563049	
0.747986	-0.0582886	
0.809631	-0.058136	
0.869751	-0.0579834	
0.926514	-0.0585938	
0.988464	-0.0619507	
1.04767	-0.0657654	
1.11084	-0.0723267	
1.17004	-0.0770569	
1.22955	-0.0782776	
1.29181	-0.0802612	
1.35071	-0.0796509	
1.40717	-0.0778198	
1.46515	-0.0775146	
1.52008	-0.0802612	
1.57837	-0.085144	
1.63239	-0.0871277	
1.68549	-0.0880432	
1.73584	-0.0923157	
1.78833	-0.0956726	
1.83868	-0.0939941	
1.88812	-0.0914001	
1.93665	-0.0900269	
1.98273	-0.0878906	
2.02545	-0.0875854	
2.0697	-0.0891113	
2.11273	-0.0914001	
2.15363	-0.0892639	
2.19147	-0.0872803	
2.23022	-0.0874329	
2.26624	-0.0883484	
2.30011	-0.0897217	
2.33124	-0.0895691	
2.36145	-0.0909424	
2.39105	-0.0935364	
2.42004	-0.0915527	
2.44415	-0.0891113	
2.46796	-0.0856018	
2.49298	-0.0848389	
2.51343	-0.0869751	
2.53326	-0.0872803	
2.55249	-0.0874329	
2.56897	-0.0865173	
2.58331	-0.0848389	
2.59735	-0.0831604	
2.60773	-0.0808716	
2.62146	-0.0793457	
2.63214	-0.0798035	
2.64038	-0.0801086	
2.64709	-0.0798035	
2.65259	-0.0801086	
2.65717	-0.078125	
2.66083	-0.0779724	
2.66449	-0.0794983	
2.66205	-0.0776672	
2.66479	-0.0752258	
2.66205	-0.0761414	
2.66174	-0.0782776	
2.65778	-0.0779724	
2.65289	-0.0767517	
2.64679	-0.0726318	
2.63885	-0.0697327	
2.63031	-0.0704956	
2.61902	-0.0735474	
2.61108	-0.0744629	
2.59949	-0.0727844	
2.5885	-0.0727844	
2.57141	-0.0726318	
2.55951	-0.0708008	
2.54456	-0.0686646	
2.52655	-0.0662231	
2.51038	-0.0656128	
2.49237	-0.0663757	
2.47284	-0.0675964	
2.453	-0.0680542	
2.43195	-0.067749	
2.40906	-0.067749	
2.38922	-0.0679016	
2.36938	-0.067749	
2.34528	-0.0679016	
2.32452	-0.0679016	
2.29767	-0.0662231	
2.2757	-0.0654602	
2.2525	-0.0654602	
2.229	-0.0646973	
2.20337	-0.0622559	
2.18018	-0.06073	
2.15485	-0.0610352	
2.13074	-0.0617981	
2.1051	-0.0621033	
2.07947	-0.0628662	
2.05505	-0.0624084	
2.02759	-0.0630188	
2.00226	-0.0631714	
1.97693	-0.065155	
1.95221	-0.0648499	
1.92749	-0.0631714	
1.90063	-0.0630188	
1.875	-0.0675964	
1.85059	-0.0686646	
1.82587	-0.065918	
1.80115	-0.063324	
1.77643	-0.0604248	
1.7514	-0.0572205	
1.72791	-0.0558472	
1.70288	-0.0578308	
1.67816	-0.0593567	
1.65466	-0.0559998	
1.62994	-0.0556946	
1.60583	-0.0552368	
1.58417	-0.0552368	
1.56097	-0.0543213	
1.53931	-0.0540161	
1.5152	-0.0556946	
1.49323	-0.0556946	
1.47339	-0.0578308	
1.44867	-0.0582886	
1.42761	-0.057373	
1.40717	-0.0549316	
1.38824	-0.0531006	
1.3681	-0.0549316	
1.34857	-0.0564575	
1.32935	-0.0559998	
1.30951	-0.0540161	
1.28937	-0.0526428	
1.27289	-0.0486755	
1.25366	-0.0480652	
1.23657	-0.050354	
1.2207	-0.0527954	
1.20483	-0.0526428	
1.18744	-0.0509644	
1.17188	-0.0489807	
1.15601	-0.0520325	
1.13892	-0.0558472	
1.12396	-0.0576782	
1.1084	-0.0561523	
1.09253	-0.0575256	
1.07727	-0.0572205	
1.05988	-0.0531006	
1.04736	-0.0509644	
1.03333	-0.0506592	
1.01868	-0.0517273	
1.00586	-0.0498962	
0.993347	-0.0486755	
0.979614	-0.0453186	
0.969543	-0.0436401	
0.95459	-0.0453186	
0.944519	-0.0450134	
0.931396	-0.0431824	
0.920715	-0.0431824	
0.908508	-0.0427246	
0.897522	-0.0434875	
0.88623	-0.043335	
0.877075	-0.0444031	
0.866394	-0.0463867	
0.857544	-0.0465393	
0.848694	-0.0471497	
0.84137	-0.0486755	
0.829163	-0.0508118	
0.821533	-0.0506592	
0.812683	-0.0486755	
0.803528	-0.04776	
0.796509	-0.0480652	
0.787964	-0.0482178	
0.780029	-0.0491333	
0.773621	-0.0506592	
0.766296	-0.0488281	
0.758057	-0.0463867	
0.749817	-0.0457764	
0.747681	-0.0456238	
0.741882	-0.045166	
0.734253	-0.0454712	
0.727844	-0.045929	
0.723572	-0.0457764	
0.716858	-0.045929	
0.710754	-0.0476074	
0.705261	-0.0483704	
0.699768	-0.0480652	
0.694275	-0.0514221	
0.690002	-0.052948	
0.684204	-0.0535583	
0.679626	-0.0520325	
0.674133	-0.0482178	
0.670471	-0.0454712	
0.664368	-0.0457764	
0.659485	-0.0457764	
0.65094	-0.0456238	
0.645447	-0.0456238	
0.640869	-0.0473022	
0.63446	-0.0465393	
0.629883	-0.0479126	
0.624695	-0.0494385	
0.620728	-0.0483704	
0.616455	-0.0492859	
0.611877	-0.0495911	
0.609436	-0.0488281	
0.604553	-0.0456238	
0.600281	-0.0427246	
0.596924	-0.0436401	
0.592346	-0.0456238	
0.587769	-0.0457764	
0.586548	-0.0460815	
0.584717	-0.045929	
0.581055	-0.0457764	
0.578003	-0.0457764	
0.575256	-0.0437927	
0.571289	-0.0445557	
0.567322	-0.0436401	
0.562744	-0.0431824	
0.561523	-0.043335	
0.557861	-0.0434875	
0.553284	-0.0454712	
0.550232	-0.0479126	
0.545959	-0.0482178	
0.541992	-0.0463867	
0.541077	-0.0480652	
0.537415	-0.0492859	
0.533142	-0.0508118	
0.526428	-0.0518799	
0.523376	-0.0486755	
0.518494	-0.0462341	
0.51239	-0.045166	
0.506592	-0.043335	
0.50293	-0.0442505	
0.499268	-0.0465393	
0.494385	-0.0483704	
0.490723	-0.0463867	
0.488586	-0.0456238	
0.483704	-0.0448608	
0.479431	-0.0416565	
0.473938	-0.0430298	
0.470581	-0.045929	
0.465088	-0.0483704	
0.4599	-0.0463867	
0.458069	-0.0460815	
0.450745	-0.0466919	
0.447998	-0.0509644	
0.443726	-0.0531006	
0.440369	-0.0552368	
0.437927	-0.0558472	
0.43335	-0.0547791	
0.429077	-0.0534058	
0.429077	-0.0523376	
0.425415	-0.0498962	
0.422974	-0.0460815	
0.419312	-0.045929	
0.419006	-0.0476074	
0.418701	-0.0483704	
0.41626	-0.0466919	
0.413513	-0.0450134	
0.40863	-0.0405884	
0.409851	-0.0413513	
0.40863	-0.045929	
0.404053	-0.0505066	
0.402832	-0.0526428	
0.400391	-0.052948	
0.39856	-0.0524902	
0.394592	-0.0498962	
0.391235	-0.0505066	
0.390625	-0.0500488	
0.390625	-0.0483704	
0.388794	-0.0483704	
0.385437	-0.0480652	
0.384521	-0.0474548	
0.385132	-0.045166	
0.385742	-0.0434875	
0.385132	-0.045929	
0.38208	-0.0500488	
0.380859	-0.0480652	
0.381775	-0.0436401	
0.384827	-0.042572	
0.38147	-0.0419617	
0.38269	-0.0480652	
0.384216	-0.0556946	
0.38269	-0.0572205	
0.384827	-0.0549316	
0.384521	-0.0532532	
0.384827	-0.0541687	
0.385437	-0.0538635	
0.384827	-0.0534058	
0.388794	-0.0531006	
0.389709	-0.0532532	
0.390015	-0.0532532	
0.39093	-0.0512695	
0.391846	-0.0497437	
0.393982	-0.0508118	
0.393677	-0.0505066	
0.39917	-0.0508118	
0.39917	-0.0485229	
0.403442	-0.0494385	
0.403748	-0.0486755	
0.40741	-0.0485229	
0.409241	-0.0482178	
0.409241	-0.0505066	
0.412903	-0.0527954	
0.415039	-0.0527954	
0.418701	-0.0552368	
0.418701	-0.0546265	
0.419312	-0.0523376	
0.419312	-0.0488281	
0.422974	-0.0462341	
0.42511	-0.0457764	
0.424194	-0.04776	
0.423889	-0.050354	
0.42511	-0.0498962	
0.429077	-0.0442505	
0.428772	-0.0430298	
0.429993	-0.0454712	
0.431213	-0.0495911	
0.433655	-0.0527954	
0.435181	-0.0521851	
0.438843	-0.0527954	
0.439453	-0.0532532	
0.439148	-0.0524902	
0.44281	-0.0479126	
0.44342	-0.0460815	
0.444641	-0.0468445	
0.447083	-0.0488281	
0.447693	-0.0527954	
0.452881	-0.0532532	
0.453186	-0.0531006	
0.454102	-0.052948	
0.457458	-0.052948	
0.458679	-0.0502014	
0.457764	-0.0485229	
0.458374	-0.0483704	
0.460205	-0.0482178	
0.45929	-0.0506592	
0.461731	-0.0506592	
0.458984	-0.0511169	
0.458679	-0.0517273	
0.458984	-0.0532532	
0.458069	-0.0538635	
0.458679	-0.0532532	
0.458679	-0.0532532	
0.458679	-0.0512695	
0.455627	-0.0486755	
0.454407	-0.0483704	
0.453186	-0.0483704	
0.453796	-0.0500488	
0.453186	-0.0509644	
0.450439	-0.0505066	
0.448914	-0.0500488	
0.448914	-0.0485229	
0.445557	-0.0494385	
0.443726	-0.0524902	
0.443726	-0.0531006	
0.44281	-0.0523376	
0.438538	-0.0508118	
0.435486	-0.0505066	
0.43457	-0.0500488	
0.433044	-0.0473022	
0.429077	-0.0471497	
0.427551	-0.0491333	
0.4245	-0.0486755	
0.419922	-0.050354	
0.417786	-0.0505066	
0.414429	-0.0486755	
0.411072	-0.0500488	
0.409241	-0.0509644	
0.404663	-0.0505066	
0.400391	-0.0527954	
0.396118	-0.0502014	
0.39093	-0.0476074	
0.389099	-0.0453186	
0.381775	-0.0427246	
0.379333	-0.0419617	
0.372009	-0.0462341	
0.366821	-0.0482178	
0.36438	-0.0495911	
0.360413	-0.0505066	
0.352173	-0.0508118	
0.349731	-0.0491333	
0.342102	-0.0500488	
0.336304	-0.0526428	
0.332336	-0.0532532	
0.3302	-0.0521851	
0.325012	-0.0508118	
0.32074	-0.0508118	
0.316467	-0.0527954	
0.312805	-0.0531006	
0.309753	-0.0515747	
0.305786	-0.0488281	
0.301819	-0.0460815	
0.297241	-0.0445557	
0.292969	-0.0437927	
0.290527	-0.0453186	
0.285645	-0.0457764	
0.280762	-0.0469971	
0.2771	-0.0453186	
0.273438	-0.0413513	
0.268555	-0.0419617	
0.263367	-0.0463867	
0.260925	-0.0508118	
0.257568	-0.052948	
0.254211	-0.0512695	
0.248718	-0.0508118	
0.244141	-0.0520325	
0.239258	-0.0517273	
0.236816	-0.0531006	
0.231934	-0.0543213	
0.227051	-0.0537109	
0.223999	-0.0558472	
0.219727	-0.0547791	
0.217285	-0.0526428	
0.212708	-0.0508118	
0.20874	-0.0480652	
0.207825	-0.0437927	
0.200195	-0.043335	
0.194702	-0.0440979	
0.189819	-0.0480652	
0.185547	-0.0480652	
0.180969	-0.0480652	
0.175171	-0.0511169	
0.169983	-0.0512695	
0.168152	-0.0508118	
0.163879	-0.0508118	
0.158386	-0.050354	
0.154419	-0.0517273	
0.152893	-0.0532532	
0.149841	-0.0521851	
0.144958	-0.0508118	
0.139771	-0.0498962	
0.140076	-0.0485229	
0.136108	-0.0480652	
0.134583	-0.0483704	
0.130005	-0.0463867	
0.124512	-0.0457764	
0.120544	-0.0466919	
0.119324	-0.0483704	
0.114441	-0.050354	
0.111389	-0.0486755	
0.108948	-0.0483704	
0.101624	-0.0479126	
0.0967407	-0.0485229	
0.0946045	-0.0482178	
0.090332	-0.0491333	
0.0897217	-0.0527954	
0.0860596	-0.0512695	
0.0845337	-0.0485229	
0.0811768	-0.0471497	
0.0775146	-0.0482178	
0.0723267	-0.0476074	
0.0704956	-0.045929	
0.0665283	-0.045929	
0.0656128	-0.04776	
0.0576782	-0.050354	
0.0549316	-0.0515747	
0.0549316	-0.0511169	
0.0506592	-0.0505066	
0.0463867	-0.0497437	
0.0460815	-0.0506592	
0.0418091	-0.0506592	
0.038147	-0.0498962	
0.0378418	-0.0462341	
0.0326538	-0.0488281	
0.0314331	-0.0509644	
0.0323486	-0.0508118	
0.0317383	-0.0508118	
0.0289917	-0.0498962	
0.027771	-0.0476074	
0.0268555	-0.04776	
0.0274658	-0.0462341	
0.0259399	-0.045929	
0.0222778	-0.0460815	
0.0210571	-0.0457764	
0.0167847	-0.0456238	
0.0167847	-0.0439453	
0.0167847	-0.043335	
0.017395	-0.0457764	
0.0140381	-0.0486755	
0.012207	-0.0517273	
0.0128174	-0.052948	
0.0115967	-0.0511169	
0.00732422	-0.0494385	
0.00762939	-0.0508118	
0.00366211	-0.0508118	
0.00274658	-0.0512695	
0.00244141	-0.052948	
0.00305176	-0.0521851	
0.00244141	-0.0498962	
0.00152588	-0.0456238	
-0.00152588	-0.0404358	
-0.00244141	-0.0410461	
-0.00244141	-0.0428772	
-0.00366211	-0.0462341	
-0.00732422	-0.0462341	
-0.00732422	-0.0447083	
-0.00854492	-0.0457764	
-0.00793457	-0.0437927	
-0.0112915	-0.0439453	
-0.0125122	-0.0488281	
-0.0128174	-0.0524902	
-0.0167847	-0.052948	
-0.0210571	-0.0511169	
-0.0213623	-0.04776	
-0.0231934	-0.0468445	
-0.0271606	-0.0480652	
-0.027771	-0.0502014	
-0.0317383	-0.0505066	
-0.0320435	-0.0508118	
-0.0326538	-0.0508118	
-0.0369263	-0.0508118	
-0.038147	-0.0511169	
-0.0387573	-0.0500488	
-0.0421143	-0.0480652	
-0.0421143	-0.0463867	
-0.0466919	-0.0456238	
-0.0460815	-0.045929	
-0.0466919	-0.0457764	
-0.0466919	-0.0468445	
-0.0473022	-0.0480652	
-0.0476074	-0.0482178	
-0.0473022	-0.0454712	
-0.0469971	-0.0422668	
-0.0466919	-0.0422668	
-0.0473022	-0.0439453	
-0.0473022	-0.0463867	
-0.0469971	-0.0491333	
-0.0463867	-0.0505066	
-0.0466919	-0.052948	
-0.0469971	-0.0531006	
-0.0506592	-0.0518799	
-0.0515747	-0.0485229	
-0.0521851	-0.0483704	
-0.0509644	-0.0463867	
-0.050354	-0.0428772	
-0.0500488	-0.0421143	
-0.0500488	-0.0430298	
-0.0466919	-0.0453186	
-0.0506592	-0.0460815	
-0.0515747	-0.0457764	
-0.0512695	-0.0437927	
-0.0527954	-0.0434875	
-0.0567627	-0.045166	
-0.0564575	-0.0474548	
-0.0564575	-0.0482178	
-0.0564575	-0.0482178	
-0.0595093	-0.0491333	
-0.0601196	-0.0508118	
-0.0613403	-0.0502014	
-0.0619507	-0.0482178	
-0.0613403	-0.0466919	
-0.0616455	-0.0453186	
-0.062561	-0.042572	
-0.0631714	-0.0411987	
-0.0668335	-0.0387573	
-0.0665283	-0.0405884	
-0.0662231	-0.0421143	
-0.0671387	-0.0431824	
-0.0704956	-0.0436401	
-0.0701904	-0.0431824	
-0.071106	-0.0460815	
-0.0714111	-0.0515747	
-0.0723267	-0.0544739	
-0.0753784	-0.0505066	
-0.0759888	-0.0462341	
-0.0765991	-0.0457764	
-0.0805664	-0.0480652	
-0.0811768	-0.0473022	
-0.0805664	-0.0460815	
-0.0839233	-0.0468445	
-0.0854492	-0.0482178	
-0.0863647	-0.0482178	
-0.0897217	-0.0505066	
-0.090332	-0.0506592	
-0.0912476	-0.0485229	
-0.0952148	-0.0482178	
-0.0958252	-0.0465393	
-0.09552	-0.0456238	
-0.0958252	-0.0457764	
-0.09552	-0.0476074	
-0.09552	-0.0511169	
-0.0958252	-0.0534058	
-0.0964355	-0.0532532	
-0.0991821	-0.0531006	
-0.0991821	-0.0534058	
-0.100708	-0.0512695	
-0.100708	-0.04776	
-0.104675	-0.0439453	
-0.10498	-0.0427246	
-0.105896	-0.0404358	
