Local: ,2025-05-08 00:00:00+02:00,tz_sec ,7200
Linux Epoch (ms):,1746655200000.0
PPG Timestamp,PPG,ADXL Timestamp,X,Y,Z
1746694876398.156,162861,1746694876379.156,-40,17,-120
1746694876437.875,162948,1746694876418.969,-48,15,-120
1746694876457.75,162920,1746694876438.781,-34,15,-126
1746694876477.625,162850,1746694876458.719,-34,12,-128
1746694876497.5,162718,1746694876478.5308,-36,11,-112
1746694876517.375,162570,1746694876498.406,-47,15,-133
1746694876537.25,162370,1746694876518.25,-25,14,-127
1746694876557.156,162178,1746694876538.125,-40,12,-127
1746694876577.0,162020,1746694876558.063,-49,14,-121
1746694876596.875,161881,1746694876577.875,-40,19,-120
1746694876616.844,161761,1746694876597.781,-47,11,-125
1746694876636.625,161663,1746694876617.719,-40,12,-112
1746694876656.5,161596,1746694876637.531,-49,12,-104
1746694876676.375,161601,1746694876657.406,-40,10,-120
1746694876696.25,161621,1746694876677.281,-23,28,-121
1746694876716.156,161644,1746694876697.156,-37,14,-121
1746694876736.0,161686,1746694876717.062,-57,24,-121
1746694876755.875,161696,1746694876736.906,-35,22,-121
1746694876775.781,161707,1746694876756.75,-45,15,-125
1746694876795.625,161718,1746694876776.656,-45,15,-121
1746694876815.5,161705,1746694876796.531,-44,18,-120
1746694876835.375,161698,1746694876816.406,-34,18,-125
1746694876855.281,161687,1746694876836.281,-50,19,-112
1746694876875.125,161673,1746694876856.156,-40,15,-125
1746694876895.0,161649,1746694876876.031,-45,19,-125
1746694876914.875,161635,1746694876895.875,-42,19,-133
1746694876934.75,161645,1746694876915.75,-29,17,-112
1746694876954.594,161662,1746694876935.656,-40,17,-122
1746694876974.469,161660,1746694876955.5308,-29,14,-125
1746694876994.375,161706,1746694876975.344,-34,20,-125
1746694877014.25,161742,1746694876995.25,-39,12,-125
1746694877034.156,161764,1746694877015.125,-29,12,-125
1746694877054.094,161781,1746694877035.0,-48,14,-130
1746694877073.844,161823,1746694877054.969,-47,16,-125
1746694877093.75,161822,1746694877074.781,-24,18,-121
1746694877113.563,161841,1746694877094.625,-34,14,-122
1746694877133.438,161835,1746694877114.469,-52,14,-120
1746694877153.344,161857,1746694877134.344,-45,28,-131
1746694877173.187,161869,1746694877154.219,-46,19,-125
1746694877193.063,161898,1746694877174.063,-40,14,-127
1746694877212.938,161922,1746694877193.969,-36,16,-116
1746694877232.812,161925,1746694877213.812,-40,23,-125
1746694877252.656,161923,1746694877233.719,-45,14,-137
1746694877272.531,161893,1746694877253.594,-37,12,-125
1746694877292.438,161920,1746694877273.438,-39,14,-112
1746694877312.3118,161933,1746694877293.344,-40,12,-121
1746694877332.156,161959,1746694877313.156,-29,12,-120
1746694877352.031,161986,1746694877333.063,-40,9,-121
1746694877371.906,161999,1746694877352.937,-40,12,-121
1746694877391.781,162043,1746694877372.781,-37,20,-126
1746694877411.688,162109,1746694877392.656,-40,12,-133
1746694877431.563,162167,1746694877412.625,-40,14,-125
1746694877451.375,162232,1746694877432.344,-34,14,-129
1746694877471.25,162293,1746694877452.281,-36,17,-125
1746694877491.094,162361,1746694877472.156,-41,24,-122
1746694877510.969,162412,1746694877492.031,-40,20,-137
1746694877530.844,162414,1746694877511.844,-45,15,-125
1746694877550.719,162382,1746694877531.75,-33,15,-131
1746694877570.5618,162276,1746694877551.625,-36,15,-125
1746694877590.469,162197,1746694877571.5,-42,17,-125
1746694877610.313,162059,1746694877591.3442,-34,22,-112
1746694877630.187,161978,1746694877611.219,-35,19,-137
1746694877650.031,161873,1746694877631.094,-36,21,-125
1746694877669.938,161814,1746694877651.031,-45,9,-129
1746694877689.813,161778,1746694877670.781,-37,15,-120
1746694877709.625,161763,1746694877690.687,-36,15,-112
1746694877729.531,161737,1746694877710.562,-51,19,-125
1746694877749.375,161728,1746694877730.406,-39,16,-125
1746694877769.25,161693,1746694877750.281,-45,9,-120
1746694877789.094,161684,1746694877770.156,-39,13,-125
1746694877808.969,161633,1746694877790.0,-47,20,-127
1746694877828.844,161581,1746694877809.875,-49,19,-127
1746694877848.719,161539,1746694877829.688,-39,15,-121
1746694877868.562,161452,1746694877849.5942,-40,15,-130
1746694877888.406,161392,1746694877869.469,-45,31,-133
1746694877908.281,161301,1746694877889.313,-36,17,-121
1746694877928.188,161256,1746694877909.156,-44,17,-120
1746694877948.0,161195,1746694877929.031,-41,12,-104
1746694877967.875,161188,1746694877948.906,-48,15,-125
1746694877987.719,161155,1746694877968.75,-42,11,-121
1746694878007.594,161166,1746694877988.625,-45,16,-137
1746694878027.438,161197,1746694878008.469,-39,16,-123
1746694878047.344,161247,1746694878028.375,-49,15,-112
1746694878067.187,161300,1746694878048.219,-41,15,-127
1746694878087.063,161332,1746694878068.063,-47,15,-120
1746694878106.875,161409,1746694878087.938,-37,12,-112
1746694878126.781,161473,1746694878107.812,-48,16,-121
1746694878146.625,161567,1746694878127.656,-37,14,-121
1746694878166.5,161649,1746694878147.469,-32,16,-120
1746694878186.344,161744,1746694878167.375,-37,12,-125
1746694878206.219,161833,1746694878187.25,-47,12,-121
1746694878226.094,161944,1746694878207.094,-32,18,-133
1746694878245.969,162064,1746694878226.969,-39,15,-127
1746694878265.906,162147,1746694878246.844,-58,15,-125
1746694878285.687,162258,1746694878266.687,-47,16,-119
1746694878305.531,162374,1746694878286.562,-48,14,-121
1746694878325.406,162469,1746694878306.438,-36,9,-112
1746694878345.25,162560,1746694878326.281,-36,15,-126
1746694878365.156,162675,1746694878346.1558,-49,9,-125
1746694878385.0,162791,1746694878366.0,-39,4,-112
1746694878404.875,162955,1746694878385.875,-34,12,-112
1746694878424.75,163140,1746694878405.75,-39,14,-129
1746694878444.594,163315,1746694878425.656,-39,15,-127
1746694878464.469,163489,1746694878445.469,-40,12,-128
1746694878484.344,163607,1746694878465.375,-40,17,-121
1746694878504.188,163710,1746694878485.344,-33,20,-125
1746694878524.063,163805,1746694878505.094,-49,28,-125
1746694878544.0,163905,1746694878524.969,-44,16,-125
1746694878563.781,164008,1746694878544.875,-45,18,-125
1746694878583.688,164111,1746694878564.688,-36,17,-130
1746694878603.563,164180,1746694878584.594,-37,11,-125
1746694878623.406,164230,1746694878604.437,-36,17,-125
1746694878643.25,164251,1746694878624.25,-37,17,-125
1746694878663.125,164238,1746694878644.188,-40,15,-125
1746694878683.0,164186,1746694878664.031,-41,27,-111
1746694878702.875,164051,1746694878683.906,-36,12,-121
1746694878722.687,163919,1746694878703.75,-49,10,-112
1746694878742.563,163766,1746694878723.625,-39,9,-112
1746694878762.438,163657,1746694878743.469,-47,12,-121
1746694878782.281,163539,1746694878763.312,-40,15,-125
1746694878802.125,163449,1746694878783.187,-39,12,-121
1746694878822.0,163416,1746694878803.031,-37,16,-120
1746694878841.844,163435,1746694878822.906,-42,15,-129
1746694878861.719,163429,1746694878842.75,-40,14,-127
1746694878881.687,163462,1746694878862.594,-40,15,-127
1746694878901.437,163512,1746694878882.5632,-44,11,-129
1746694878921.281,163525,1746694878902.344,-45,12,-117
1746694878941.188,163573,1746694878922.188,-40,12,-122
1746694878961.0,163595,1746694878942.062,-49,10,-133
1746694878980.875,163597,1746694878961.906,-46,12,-119
1746694879000.75,163589,1746694878981.75,-40,8,-125
1746694879020.594,163560,1746694879001.625,-48,14,-120
1746694879040.437,163548,1746694879021.5,-49,15,-125
1746694879060.312,163509,1746694879041.344,-36,19,-126
1746694879080.188,163501,1746694879061.188,-44,16,-145
1746694879100.063,163479,1746694879081.063,-36,8,-125
1746694879119.906,163492,1746694879100.937,-40,4,-120
1746694879139.781,163535,1746694879120.781,-40,10,-120
1746694879159.656,163557,1746694879140.656,-39,15,-121
1746694879179.5,163573,1746694879160.531,-36,16,-120
1746694879199.344,163599,1746694879180.437,-44,14,-125
1746694879219.187,163625,1746694879200.25,-40,12,-125
1746694879239.062,163657,1746694879220.094,-50,15,-125
1746694879258.969,163681,1746694879239.938,-37,24,-133
1746694879278.813,163697,1746694879259.844,-49,15,-112
1746694879298.75,163697,1746694879279.75,-32,11,-112
1746694879318.562,163705,1746694879299.562,-44,15,-116
1746694879338.438,163760,1746694879319.438,-42,12,-112
1746694879358.25,163761,1746694879339.313,-26,20,-121
1746694879378.187,163791,1746694879359.1868,-37,11,-121
1746694879398.0,163821,1746694879379.062,-40,15,-133
1746694879417.906,163832,1746694879398.875,-39,27,-127
1746694879437.75,163886,1746694879418.781,-34,15,-120
1746694879457.594,163900,1746694879438.656,-49,28,-133
1746694879477.5,163918,1746694879458.5,-40,15,-114
1746694879497.344,163932,1746694879478.375,-39,13,-125
1746694879517.188,163962,1746694879498.219,-47,15,-121
1746694879537.062,163992,1746694879518.187,-36,14,-119
1746694879556.906,164033,1746694879537.906,-39,9,-121
1746694879576.781,164095,1746694879557.813,-36,12,-137
1746694879596.625,164165,1746694879577.688,-48,14,-129
1746694879616.562,164229,1746694879597.5,-39,16,-112
1746694879636.375,164296,1746694879617.4368,-38,13,-112
1746694879656.219,164355,1746694879637.25,-40,11,-121
1746694879676.063,164424,1746694879657.094,-50,11,-125
1746694879695.938,164482,1746694879676.969,-40,12,-127
1746694879715.812,164562,1746694879696.812,-39,15,-122
1746694879735.656,164616,1746694879716.687,-36,16,-127
1746694879755.563,164702,1746694879736.563,-57,11,-133
1746694879775.4058,164783,1746694879756.469,-45,19,-127
1746694879795.281,164852,1746694879776.281,-37,11,-120
1746694879815.125,164897,1746694879796.156,-36,7,-121
1746694879835.031,164866,1746694879816.063,-34,12,-129
1746694879854.906,164808,1746694879835.938,-45,16,-122
1746694879874.75,164678,1746694879855.781,-36,24,-128
1746694879894.594,164544,1746694879875.625,-40,19,-125
1746694879914.5,164425,1746694879895.5,-32,16,-133
1746694879934.344,164296,1746694879915.406,-39,22,-130
1746694879954.219,164203,1746694879935.25,-37,14,-137
1746694879974.062,164116,1746694879955.062,-37,19,-120
1746694879993.938,164103,1746694879975.0,-47,15,-125
1746694880013.813,164112,1746694879994.813,-36,15,-121
1746694880033.687,164120,1746694880014.656,-48,14,-120
1746694880053.5,164153,1746694880034.531,-39,12,-120
1746694880073.406,164180,1746694880054.406,-36,15,-112
1746694880093.281,164199,1746694880074.281,-49,1,-125
1746694880113.156,164209,1746694880094.125,-32,17,-120
1746694880133.0618,164240,1746694880114.031,-34,14,-121
1746694880152.875,164232,1746694880133.938,-48,11,-116
1746694880172.75,164220,1746694880153.719,-40,15,-125
1746694880192.625,164174,1746694880173.563,-42,9,-116
1746694880212.469,164195,1746694880193.5,-41,12,-128
1746694880232.375,164190,1746694880213.375,-45,9,-112
1746694880252.25,164172,1746694880233.219,-34,18,-112
1746694880272.125,164198,1746694880253.125,-39,14,-127
1746694880291.969,164228,1746694880273.0,-49,16,-121
1746694880311.812,164249,1746694880292.875,-55,14,-112
1746694880331.719,164308,1746694880312.719,-45,15,-125
1746694880351.562,164401,1746694880332.562,-47,15,-125
1746694880371.406,164466,1746694880352.437,-40,9,-120
1746694880391.281,164577,1746694880372.313,-40,16,-125
1746694880411.156,164712,1746694880392.188,-42,17,-127
1746694880431.031,164860,1746694880412.031,-34,15,-130
1746694880450.875,165049,1746694880431.906,-41,11,-120
1746694880470.75,165224,1746694880451.781,-52,11,-125
1746694880490.594,165479,1746694880471.625,-36,14,-126
1746694880510.438,165739,1746694880491.469,-37,11,-128
1746694880530.312,166048,1746694880511.375,-40,22,-125
1746694880550.187,166302,1746694880531.219,-36,28,-137
1746694880570.0632,166524,1746694880551.063,-36,22,-133
1746694880589.906,166697,1746694880570.938,-36,12,-125
1746694880609.781,166818,1746694880590.844,-48,16,-120
1746694880629.656,166900,1746694880610.656,-39,16,-133
1746694880649.5,166987,1746694880630.531,-53,8,-121
1746694880669.344,167053,1746694880650.469,-42,7,-125
1746694880689.219,167087,1746694880670.281,-40,13,-126
1746694880709.094,167141,1746694880690.094,-45,9,-125
1746694880728.969,167130,1746694880709.969,-36,15,-125
1746694880748.813,167110,1746694880729.875,-34,15,-122
1746694880768.687,167042,1746694880749.75,-36,14,-123
1746694880788.594,167001,1746694880769.562,-45,13,-112
1746694880808.469,166960,1746694880789.469,-45,12,-125
1746694880828.281,166897,1746694880809.375,-12,8,-121
1746694880848.187,166876,1746694880829.187,-36,7,-114
1746694880868.031,166806,1746694880849.062,-49,12,-125
1746694880887.906,166735,1746694880868.938,-43,20,-121
1746694880907.75,166679,1746694880888.781,-36,7,-129
1746694880927.625,166597,1746694880908.6558,-45,12,-125
1746694880947.469,166532,1746694880928.5,-38,4,-115
1746694880967.344,166494,1746694880948.312,-37,8,-120
1746694880987.188,166445,1746694880968.219,-37,17,-129
1746694881007.063,166359,1746694880988.094,-38,17,-137
1746694881026.937,166218,1746694881007.937,-36,15,-133
1746694881046.812,166053,1746694881027.812,-40,14,-127
1746694881066.656,165871,1746694881047.719,-48,15,-122
1746694881086.531,165714,1746694881067.563,-39,9,-121
1746694881106.375,165556,1746694881087.375,-36,14,-120
1746694881126.25,165409,1746694881107.25,-45,15,-125
1746694881146.094,165329,1746694881127.156,-45,15,-125
1746694881165.969,165296,1746694881147.0,-48,7,-127
1746694881185.875,165314,1746694881166.844,-36,3,-133
1746694881205.719,165357,1746694881186.75,-36,14,-126
1746694881225.594,165427,1746694881206.625,-41,8,-133
1746694881245.438,165471,1746694881226.469,-36,15,-127
1746694881265.375,165519,1746694881246.344,-49,18,-120
1746694881285.156,165567,1746694881266.219,-36,7,-116
1746694881305.031,165619,1746694881286.063,-37,15,-125
1746694881324.875,165634,1746694881305.969,-48,12,-121
1746694881344.781,165641,1746694881325.781,-40,16,-145
1746694881364.625,165631,1746694881345.656,-34,12,-125
1746694881384.5,165605,1746694881365.563,-44,11,-111
1746694881404.375,165566,1746694881385.406,-37,9,-130
1746694881424.25,165526,1746694881405.25,-36,14,-129
1746694881444.094,165519,1746694881425.125,-47,16,-136
1746694881464.0,165510,1746694881445.031,-45,12,-121
1746694881483.844,165532,1746694881464.844,-40,12,-112
1746694881503.719,165550,1746694881484.75,-48,15,-112
1746694881523.562,165581,1746694881504.594,-40,23,-121
1746694881543.437,165584,1746694881524.5,-48,17,-121
1746694881563.344,165589,1746694881544.313,-29,14,-120
1746694881583.188,165647,1746694881564.188,-44,12,-120
1746694881603.031,165659,1746694881584.094,-41,19,-125
1746694881622.906,165696,1746694881603.969,-36,20,-125
1746694881642.781,165732,1746694881623.781,-49,16,-133
1746694881662.656,165781,1746694881643.687,-37,19,-121
1746694881682.5,165823,1746694881663.531,-36,24,-127
1746694881702.375,165865,1746694881683.406,-44,16,-125
1746694881722.281,165897,1746694881703.25,-49,16,-112
1746694881742.156,165928,1746694881723.125,-45,15,-120
1746694881761.969,165984,1746694881743.031,-39,16,-125
1746694881781.844,166037,1746694881762.906,-50,15,-121
1746694881801.688,166129,1746694881782.75,-40,18,-120
1746694881821.563,166196,1746694881802.594,-45,17,-125
1746694881841.375,166280,1746694881822.437,-37,19,-120
1746694881861.25,166382,1746694881842.281,-45,12,-127
1746694881881.125,166460,1746694881862.156,-32,15,-121
1746694881900.969,166546,1746694881882.0,-36,14,-120
1746694881920.844,166642,1746694881901.875,-40,11,-126
1746694881940.687,166785,1746694881921.75,-39,9,-125
1746694881960.562,166882,1746694881941.562,-48,12,-125
1746694881980.406,166996,1746694881961.438,-38,16,-122
1746694882000.25,167110,1746694881981.313,-47,15,-129
1746694882020.094,167195,1746694882001.156,-49,16,-128
1746694882039.969,167276,1746694882021.0,-47,14,-125
1746694882059.813,167391,1746694882040.875,-36,14,-112
1746694882079.656,167517,1746694882060.656,-37,14,-125
1746694882099.562,167643,1746694882080.594,-40,12,-125
1746694882119.406,167742,1746694882100.437,-47,15,-122
1746694882139.281,167849,1746694882120.25,-40,15,-136
1746694882159.094,167908,1746694882140.156,-41,9,-133
1746694882178.969,167929,1746694882160.031,-39,7,-129
1746694882198.844,167924,1746694882179.9368,-40,15,-125
1746694882218.719,167825,1746694882199.719,-45,12,-127
1746694882238.563,167717,1746694882219.594,-50,15,-125
1746694882258.406,167640,1746694882239.469,-49,15,-137
1746694882278.281,167579,1746694882259.25,-45,16,-135
1746694882298.125,167520,1746694882279.156,-45,14,-128
1746694882317.969,167560,1746694882299.031,-34,15,-120
1746694882337.875,167611,1746694882318.875,-45,15,-125
1746694882357.719,167714,1746694882338.75,-35,24,-127
1746694882377.594,167818,1746694882358.625,-31,19,-133
1746694882397.469,167910,1746694882378.5,-36,15,-125
1746694882417.313,167979,1746694882398.375,-52,16,-119
1746694882437.219,168056,1746694882418.219,-40,12,-125
1746694882457.031,168111,1746694882438.094,-46,12,-112
1746694882476.906,168153,1746694882457.938,-50,19,-118
1746694882496.781,168151,1746694882477.844,-44,11,-127
1746694882516.656,168138,1746694882497.656,-33,19,-129
1746694882536.5,168106,1746694882517.531,-45,12,-129
1746694882556.375,168014,1746694882537.406,-33,17,-125
1746694882576.219,167941,1746694882557.281,-40,9,-129
1746694882596.094,167892,1746694882577.125,-40,14,-125
1746694882615.937,167833,1746694882597.0,-37,18,-125
1746694882635.812,167801,1746694882616.844,-36,19,-132
1746694882655.719,167803,1746694882636.719,-47,20,-133
1746694882675.563,167816,1746694882656.594,-39,14,-130
1746694882695.375,167843,1746694882676.469,-45,12,-125
1746694882715.25,167878,1746694882696.281,-41,15,-122
1746694882735.125,167919,1746694882716.125,-40,11,-125
1746694882755.031,168013,1746694882736.0,-47,11,-120
1746694882774.875,168079,1746694882755.906,-47,12,-133
1746694882794.781,168140,1746694882775.781,-41,16,-120
1746694882814.625,168182,1746694882795.625,-40,12,-132
1746694882834.625,168217,1746694882815.594,-49,15,-121
1746694882854.344,168252,1746694882835.406,-36,19,-125
1746694882874.25,168272,1746694882855.281,-40,16,-133
1746694882894.125,168286,1746694882875.156,-49,14,-125
1746694882914.0,168314,1746694882895.0,-40,15,-127
1746694882933.969,168340,1746694882914.875,-51,9,-125
1746694882953.719,168323,1746694882934.875,-39,14,-125
1746694882973.594,168337,1746694882954.594,-36,15,-112
1746694882993.438,168343,1746694882974.469,-49,12,-125
1746694883013.312,168365,1746694882994.312,-36,14,-133
1746694883033.187,168395,1746694883014.25,-35,16,-132
1746694883053.063,168456,1746694883034.094,-39,12,-125
1746694883072.906,168501,1746694883053.938,-42,12,-127
1746694883092.75,168571,1746694883073.812,-41,19,-129
1746694883112.625,168630,1746694883093.687,-33,15,-125
1746694883132.5632,168677,1746694883113.5,-26,11,-125
1746694883152.344,168708,1746694883133.375,-40,15,-120
1746694883172.219,168777,1746694883153.25,-36,15,-112
1746694883192.062,168836,1746694883173.125,-47,28,-125
1746694883211.969,168886,1746694883192.969,-39,14,-133
1746694883231.781,168931,1746694883212.844,-40,17,-127
1746694883251.656,168919,1746694883232.687,-34,16,-120
1746694883271.531,168899,1746694883252.562,-49,15,-122
1746694883291.406,168827,1746694883272.406,-48,12,-125
1746694883311.25,168688,1746694883292.281,-50,15,-125
1746694883331.125,168510,1746694883312.187,-40,20,-125
1746694883351.031,168364,1746694883332.0,-42,15,-133
1746694883370.906,168230,1746694883351.906,-40,17,-121
1746694883390.781,168092,1746694883371.75,-39,16,-125
1746694883410.656,167973,1746694883391.656,-36,15,-120
1746694883430.531,167929,1746694883411.531,-32,9,-112
1746694883450.406,167900,1746694883431.406,-36,12,-125
1746694883470.25,167898,1746694883451.281,-40,12,-125
1746694883490.125,167888,1746694883471.1558,-61,16,-120
1746694883510.0,167895,1746694883491.0,-39,11,-126
1746694883529.938,167932,1746694883510.875,-49,16,-112
1746694883549.688,167939,1746694883530.75,-39,16,-119
1746694883569.563,167972,1746694883550.594,-48,12,-125
1746694883589.469,167958,1746694883570.437,-42,16,-120
1746694883609.312,167915,1746694883590.344,-47,17,-125
1746694883629.156,167899,1746694883610.188,-40,15,-121
1746694883649.063,167880,1746694883630.063,-40,18,-112
1746694883668.937,167853,1746694883649.937,-36,14,-128
1746694883688.781,167815,1746694883669.812,-50,12,-112
1746694883708.625,167819,1746694883689.688,-40,15,-127
1746694883728.5,167822,1746694883709.531,-37,12,-121
1746694883748.375,167844,1746694883729.406,-48,15,-121
1746694883768.219,167901,1746694883749.219,-41,14,-125
1746694883788.063,167927,1746694883769.063,-44,23,-120
1746694883807.969,167974,1746694883789.0,-40,9,-125
1746694883827.812,168021,1746694883808.875,-40,20,-121
1746694883847.656,168073,1746694883828.687,-49,13,-121
1746694883867.5,168120,1746694883848.594,-40,12,-112
1746694883887.375,168150,1746694883868.438,-49,23,-112
1746694883907.25,168168,1746694883888.281,-37,15,-126
1746694883927.125,168178,1746694883908.125,-49,15,-124
1746694883946.906,168217,1746694883927.969,-49,7,-111
1746694883966.781,168214,1746694883947.813,-39,20,-112
1746694883986.625,168219,1746694883967.688,-49,15,-121
1746694884006.469,168215,1746694883987.531,-34,17,-137
1746694884026.312,168219,1746694884007.375,-39,15,-129
1746694884046.156,168218,1746694884027.219,-51,15,-120
1746694884066.031,168248,1746694884047.031,-32,15,-112
1746694884085.906,168221,1746694884066.906,-43,12,-127
1746694884105.719,168235,1746694884086.812,-48,14,-121
1746694884125.594,168226,1746694884106.656,-45,19,-121
1746694884145.469,168227,1746694884126.469,-37,12,-121
1746694884165.344,168221,1746694884146.437,-45,16,-130
1746694884185.156,168212,1746694884166.187,-40,17,-113
1746694884205.031,168196,1746694884186.094,-50,15,-121
1746694884224.906,168214,1746694884205.969,-33,24,-130
1746694884244.781,168244,1746694884225.781,-46,14,-125
1746694884264.625,168267,1746694884245.656,-32,9,-112
1746694884284.5,168328,1746694884265.531,-36,31,-131
1746694884304.375,168366,1746694884285.344,-36,14,-116
1746694884324.219,168422,1746694884305.25,-32,8,-127
1746694884344.063,168465,1746694884325.125,-40,14,-112
1746694884363.937,168530,1746694884344.969,-47,15,-120
1746694884383.781,168596,1746694884364.813,-45,25,-121
1746694884403.625,168651,1746694884384.656,-45,12,-112
1746694884423.5,168706,1746694884404.531,-47,15,-127
1746694884443.3442,168754,1746694884424.406,-41,14,-126
1746694884463.187,168754,1746694884444.187,-41,14,-126
1746694884483.156,168705,1746694884464.063,-49,15,-128
1746694884502.938,168621,1746694884484.062,-47,15,-125
1746694884522.812,168457,1746694884503.812,-44,15,-133
1746694884542.687,168286,1746694884523.656,-39,15,-127
1746694884562.531,168151,1746694884543.563,-39,13,-133
1746694884582.406,167989,1746694884563.438,-36,16,-114
1746694884602.281,167887,1746694884583.281,-39,12,-120
1746694884622.125,167819,1746694884603.125,-56,14,-112
1746694884641.969,167810,1746694884623.031,-49,15,-125
1746694884661.844,167798,1746694884642.875,-37,12,-125
1746694884681.719,167830,1746694884662.75,-44,3,-125
1746694884701.594,167844,1746694884682.594,-47,16,-128
1746694884721.406,167870,1746694884702.437,-40,19,-127
1746694884741.281,167867,1746694884722.313,-45,12,-128
1746694884761.156,167888,1746694884742.188,-34,17,-129
1746694884781.0,167879,1746694884762.062,-36,14,-128
1746694884800.875,167873,1746694884781.844,-38,15,-120
1746694884820.719,167807,1746694884801.75,-40,15,-121
1746694884840.594,167734,1746694884821.594,-44,15,-112
1746694884860.469,167669,1746694884841.469,-49,13,-141
1746694884880.312,167627,1746694884861.375,-40,16,-130
1746694884900.219,167572,1746694884881.25,-32,9,-127
1746694884920.156,167543,1746694884901.094,-42,14,-129
1746694884939.937,167502,1746694884921.062,-52,17,-137
1746694884959.812,167477,1746694884940.812,-36,19,-120
1746694884979.656,167485,1746694884960.719,-49,16,-130
1746694884999.531,167487,1746694884980.563,-48,13,-112
1746694885019.406,167514,1746694885000.437,-34,24,-127
1746694885039.25,167516,1746694885020.281,-45,12,-127
1746694885059.125,167506,1746694885040.188,-48,15,-137
1746694885079.031,167508,1746694885060.0,-38,15,-120
1746694885098.875,167524,1746694885079.906,-47,11,-128
1746694885118.719,167555,1746694885099.781,-41,12,-125
1746694885138.594,167576,1746694885119.688,-48,8,-125
1746694885158.5,167612,1746694885139.469,-42,15,-133
1746694885178.344,167659,1746694885159.375,-44,16,-137
1746694885198.187,167676,1746694885179.219,-33,16,-125
1746694885218.094,167711,1746694885199.125,-50,14,-125
1746694885237.938,167765,1746694885219.0,-37,20,-125
1746694885257.812,167808,1746694885238.781,-41,30,-112
1746694885277.781,167851,1746694885258.687,-45,17,-125
1746694885297.531,167903,1746694885278.656,-44,19,-133
1746694885317.406,167929,1746694885298.406,-32,12,-114
1746694885337.25,167973,1746694885318.281,-36,14,-112
1746694885357.094,168029,1746694885338.156,-49,31,-125
1746694885376.969,168055,1746694885358.031,-44,17,-125
1746694885396.844,168117,1746694885377.875,-36,16,-130
1746694885416.688,168185,1746694885397.75,-36,7,-111
1746694885436.562,168247,1746694885417.656,-44,14,-112
1746694885456.437,168313,1746694885437.469,-40,15,-125
1746694885476.3132,168379,1746694885457.281,-37,12,-121
1746694885496.156,168469,1746694885477.156,-38,20,-125
1746694885516.0,168537,1746694885497.062,-39,12,-121
1746694885535.906,168618,1746694885516.906,-53,12,-125
1746694885555.781,168674,1746694885536.781,-49,11,-112
1746694885575.594,168755,1746694885556.6558,-49,17,-127
1746694885595.5,168827,1746694885576.5,-49,15,-125
1746694885615.344,168874,1746694885596.375,-45,17,-121
1746694885635.219,168962,1746694885616.219,-32,19,-120
1746694885655.031,169002,1746694885636.094,-49,14,-128
1746694885674.937,169082,1746694885655.969,-38,7,-125
1746694885694.781,169075,1746694885675.812,-41,12,-121
1746694885714.656,169059,1746694885695.656,-44,15,-123
1746694885734.5632,168975,1746694885715.531,-37,7,-127
1746694885754.375,168829,1746694885735.406,-50,3,-116
1746694885774.25,168662,1746694885755.25,-40,8,-125
1746694885794.125,168504,1746694885775.125,-36,15,-120
1746694885813.969,168336,1746694885795.0,-45,14,-136
1746694885833.844,168218,1746694885814.875,-45,19,-125
1746694885853.719,168104,1746694885834.75,-41,16,-122
1746694885873.594,168058,1746694885854.562,-40,9,-112
1746694885893.438,168041,1746694885874.469,-40,12,-121
1746694885913.313,168056,1746694885894.313,-44,9,-120
1746694885933.187,168055,1746694885914.187,-49,16,-133
1746694885953.062,168069,1746694885934.094,-45,15,-127
1746694885972.906,168098,1746694885953.906,-41,16,-120
1746694885992.781,168103,1746694885973.813,-45,12,-133
1746694886012.656,168110,1746694885993.656,-41,9,-127
1746694886032.531,168100,1746694886013.5,-36,12,-133
1746694886052.375,168051,1746694886033.406,-36,18,-133
1746694886072.25,168007,1746694886053.281,-49,14,-121
1746694886092.125,167967,1746694886073.094,-24,19,-112
1746694886111.969,167909,1746694886093.031,-53,16,-112
1746694886132.0,167869,1746694886112.906,-43,15,-125
1746694886151.75,167868,1746694886132.781,-37,32,-129
1746694886171.594,167867,1746694886152.625,-49,16,-121
1746694886191.406,167888,1746694886172.5,-37,16,-109
1746694886211.313,167921,1746694886192.344,-45,13,-112
1746694886231.188,167908,1746694886212.219,-40,11,-125
1746694886251.031,167907,1746694886232.062,-44,16,-133
1746694886270.875,167928,1746694886251.906,-49,15,-125
1746694886290.781,167935,1746694886271.813,-49,9,-121
1746694886310.594,167946,1746694886291.656,-37,14,-112
1746694886330.5,167960,1746694886311.469,-49,14,-125
1746694886350.312,167973,1746694886331.375,-49,12,-120
1746694886370.156,167980,1746694886351.219,-36,12,-112
1746694886390.031,167973,1746694886371.063,-47,17,-125
1746694886409.906,167992,1746694886390.938,-39,15,-125
1746694886429.75,167967,1746694886410.812,-17,15,-130
1746694886449.625,167985,1746694886430.625,-41,17,-130
1746694886469.5,167996,1746694886450.5,-41,12,-126
1746694886489.344,168009,1746694886470.375,-41,19,-129
1746694886509.187,168000,1746694886490.25,-45,16,-125
1746694886529.094,168032,1746694886510.125,-41,15,-125
1746694886548.938,168059,1746694886529.938,-49,15,-129
1746694886568.813,168084,1746694886549.813,-36,23,-122
1746694886588.625,168122,1746694886569.687,-49,15,-133
1746694886608.5,168177,1746694886589.531,-40,19,-137
1746694886628.438,168224,1746694886609.375,-45,15,-135
1746694886648.219,168269,1746694886629.313,-42,19,-120
1746694886668.063,168359,1746694886649.125,-45,15,-112
1746694886687.937,168413,1746694886668.969,-48,12,-125
1746694886707.781,168474,1746694886688.812,-42,12,-120
1746694886727.688,168518,1746694886708.688,-36,15,-125
1746694886747.5,168583,1746694886728.563,-47,15,-127
1746694886767.406,168660,1746694886748.5,-38,17,-127
1746694886787.281,168712,1746694886768.281,-37,14,-112
1746694886807.125,168768,1746694886788.156,-40,8,-112
1746694886826.969,168786,1746694886808.0,-48,14,-125
1746694886846.812,168765,1746694886827.875,-39,7,-126
1746694886866.687,168698,1746694886847.687,-40,8,-127
1746694886886.531,168582,1746694886867.563,-36,23,-133
1746694886906.406,168416,1746694886887.438,-47,14,-125
1746694886926.25,168239,1746694886907.312,-49,16,-133
1746694886946.125,168107,1746694886927.156,-48,15,-120
1746694886966.031,167977,1746694886947.031,-36,14,-121
1746694886985.844,167902,1746694886966.906,-48,11,-120
1746694887005.719,167874,1746694886986.75,-39,14,-112
1746694887025.594,167849,1746694887006.625,-50,15,-112
1746694887045.437,167858,1746694887026.469,-36,15,-112
1746694887065.281,167804,1746694887046.313,-37,15,-121
1746694887085.125,167783,1746694887066.219,-34,9,-127
1746694887105.0,167792,1746694887086.031,-39,12,-125
1746694887124.875,167748,1746694887105.875,-39,12,-120
1746694887144.719,167742,1746694887125.75,-40,8,-112
1746694887164.563,167705,1746694887145.625,-51,21,-128
1746694887184.438,167648,1746694887165.469,-34,12,-116
1746694887204.312,167607,1746694887185.312,-33,17,-127
1746694887224.156,167534,1746694887205.219,-48,24,-125
1746694887244.031,167501,1746694887225.094,-39,12,-126
1746694887263.875,167461,1746694887244.937,-40,17,-128
1746694887283.781,167445,1746694887264.781,-40,16,-129
1746694887303.594,167432,1746694887284.656,-44,17,-127
1746694887323.469,167449,1746694887304.5,-47,14,-120
1746694887343.344,167465,1746694887324.344,-40,14,-128
1746694887363.219,167479,1746694887344.25,-45,16,-125
1746694887383.031,167502,1746694887364.094,-49,16,-125
1746694887402.906,167537,1746694887383.969,-40,12,-125
1746694887422.781,167573,1746694887403.781,-39,8,-129
1746694887442.625,167600,1746694887423.687,-44,16,-125
1746694887462.469,167611,1746694887443.531,-36,12,-116
1746694887482.375,167644,1746694887463.375,-34,12,-125
1746694887502.281,167673,1746694887483.25,-32,14,-132
1746694887522.094,167665,1746694887503.062,-36,14,-129
1746694887541.937,167675,1746694887522.969,-33,14,-133
1746694887561.812,167691,1746694887542.844,-41,20,-125
1746694887581.688,167717,1746694887562.6882,-39,16,-125
1746694887601.531,167743,1746694887582.562,-41,15,-133
1746694887621.375,167759,1746694887602.406,-52,31,-121
1746694887641.25,167787,1746694887622.25,-39,18,-121
1746694887661.094,167812,1746694887642.125,-40,16,-125
1746694887680.969,167833,1746694887662.0,-40,16,-112
1746694887700.844,167882,1746694887681.875,-40,14,-125
1746694887720.687,167895,1746694887701.75,-51,16,-125
1746694887740.594,167962,1746694887721.531,-47,15,-120
1746694887760.438,168011,1746694887741.469,-41,12,-112
1746694887780.281,168057,1746694887761.344,-39,15,-125
1746694887800.156,168124,1746694887781.187,-48,15,-133
1746694887820.094,168171,1746694887801.031,-45,15,-133
1746694887839.875,168230,1746694887820.969,-40,14,-121
1746694887859.75,168302,1746694887840.781,-36,16,-112
1746694887879.625,168329,1746694887860.656,-47,14,-125
1746694887899.5,168381,1746694887880.5,-39,9,-125
1746694887919.344,168450,1746694887900.375,-42,14,-130
1746694887939.188,168492,1746694887920.25,-49,8,-133
1746694887959.094,168494,1746694887940.094,-49,3,-112
1746694887978.969,168416,1746694887959.969,-41,15,-125
1746694887998.844,168311,1746694887979.844,-36,15,-127
1746694888018.687,168149,1746694887999.719,-45,9,-116
1746694888038.531,167974,1746694888019.562,-45,16,-126
1746694888058.406,167780,1746694888039.438,-51,27,-127
1746694888078.281,167588,1746694888059.281,-42,15,-128
1746694888098.156,167387,1746694888079.156,-39,15,-120
1746694888118.031,167196,1746694888099.031,-49,12,-112
1746694888137.875,166997,1746694888118.938,-32,9,-125
1746694888157.719,166841,1746694888138.719,-39,15,-125
1746694888177.563,166728,1746694888158.594,-40,10,-112
1746694888197.469,166695,1746694888178.469,-56,14,-112
1746694888217.344,166766,1746694888198.375,-45,9,-122
1746694888237.188,166912,1746694888218.219,-34,15,-112
1746694888257.063,167091,1746694888238.094,-41,8,-125
1746694888276.906,167192,1746694888257.937,-50,15,-122
1746694888296.781,167261,1746694888277.812,-32,16,-137
1746694888316.625,167274,1746694888297.656,-44,12,-133
1746694888336.594,167234,1746694888317.531,-40,17,-125
1746694888356.375,167193,1746694888337.406,-50,15,-122
1746694888376.25,167157,1746694888357.25,-40,12,-121
1746694888396.094,167168,1746694888377.156,-54,16,-125
1746694888415.969,167217,1746694888397.031,-44,16,-143
1746694888435.844,167298,1746694888416.844,-49,19,-125
1746694888455.687,167375,1746694888436.687,-34,15,-120
1746694888475.531,167475,1746694888456.594,-43,12,-112
1746694888495.406,167510,1746694888476.438,-40,9,-125
1746694888515.25,167492,1746694888496.281,-39,14,-134
1746694888535.125,167418,1746694888516.156,-36,15,-133
1746694888554.969,167350,1746694888536.0,-41,17,-125
1746694888574.813,167328,1746694888555.906,-41,15,-121
1746694888594.719,167368,1746694888575.7192,-40,33,-133
1746694888614.625,167447,1746694888595.625,-36,19,-128
1746694888634.406,167528,1746694888615.531,-32,15,-133
1746694888654.281,167625,1746694888635.344,-52,17,-130
1746694888674.156,167641,1746694888655.156,-49,12,-127
1746694888694.0,167588,1746694888675.031,-37,31,-125
1746694888713.875,167417,1746694888694.906,-34,19,-125
1746694888733.719,167238,1746694888714.781,-48,19,-127
1746694888753.594,167137,1746694888734.594,-36,7,-133
1746694888773.438,167066,1746694888754.531,-42,16,-130
1746694888793.281,167091,1746694888774.344,-40,15,-112
1746694888813.125,167192,1746694888794.188,-40,11,-128
1746694888833.0,167302,1746694888814.031,-39,14,-125
1746694888852.875,167398,1746694888833.844,-40,14,-120
1746694888872.687,167507,1746694888853.812,-47,24,-129
1746694888892.562,167636,1746694888873.594,-34,20,-125
1746694888912.438,167730,1746694888893.438,-39,20,-120
1746694888932.281,167834,1746694888913.313,-40,15,-122
1746694888952.187,167884,1746694888933.219,-48,20,-121
1746694888972.031,167902,1746694888953.094,-41,12,-125
1746694888991.906,167908,1746694888972.906,-34,12,-125
1746694889011.75,167916,1746694888992.813,-41,17,-121
1746694889031.625,167853,1746694889012.625,-32,16,-126
1746694889051.5,167713,1746694889032.5,-49,17,-120
1746694889071.312,167509,1746694889052.375,-45,14,-121
1746694889091.188,167268,1746694889072.188,-49,24,-132
1746694889111.031,167018,1746694889092.094,-33,15,-129
1746694889130.937,166806,1746694889111.969,-41,19,-127
1746694889150.781,166648,1746694889131.813,-36,17,-128
1746694889170.625,166522,1746694889151.656,-40,19,-129
1746694889190.469,166445,1746694889171.562,-45,15,-132
1746694889210.375,166418,1746694889191.375,-48,17,-127
1746694889230.281,166432,1746694889211.25,-46,16,-125
1746694889250.094,166482,1746694889231.156,-39,14,-133
1746694889269.969,166564,1746694889251.0,-37,19,-131
1746694889289.812,166616,1746694889270.875,-32,15,-125
1746694889309.687,166692,1746694889290.719,-36,15,-125
1746694889329.531,166737,1746694889310.563,-40,23,-121
1746694889349.406,166791,1746694889330.469,-41,19,-127
1746694889369.25,166773,1746694889350.25,-13,16,-120
1746694889389.156,166782,1746694889370.156,-40,12,-120
1746694889408.969,166740,1746694889390.031,-36,12,-125
1746694889428.844,166719,1746694889409.844,-43,39,-120
1746694889448.719,166697,1746694889429.75,-40,19,-127
1746694889468.594,166671,1746694889449.625,-40,17,-125
1746694889488.469,166673,1746694889469.469,-47,15,-111
1746694889508.313,166731,1746694889489.406,-52,17,-112
1746694889528.188,166764,1746694889509.219,-39,11,-112
1746694889548.062,166808,1746694889529.062,-36,20,-131
1746694889567.906,166881,1746694889548.969,-42,12,-116
1746694889587.781,166938,1746694889568.813,-39,15,-121
1746694889607.656,166998,1746694889588.656,-58,19,-133
1746694889627.562,167020,1746694889608.562,-52,14,-129
1746694889647.375,167059,1746694889628.438,-39,16,-133
1746694889667.25,167091,1746694889648.281,-49,18,-129
1746694889687.125,167121,1746694889668.125,-39,15,-135
1746694889707.0,167173,1746694889688.0,-42,19,-128
1746694889726.844,167252,1746694889707.875,-39,15,-125
1746694889746.719,167327,1746694889727.75,-49,15,-133
1746694889766.625,167405,1746694889747.625,-55,11,-127
1746694889786.5,167507,1746694889767.5,-41,15,-116
1746694889806.344,167587,1746694889787.375,-43,14,-120
1746694889826.25,167703,1746694889807.25,-57,9,-127
1746694889846.125,167784,1746694889827.125,-36,15,-133
1746694889866.062,167891,1746694889847.0,-42,15,-129
1746694889885.812,167942,1746694889866.875,-48,11,-129
1746694889905.719,168036,1746694889886.719,-40,8,-121
1746694889925.563,168089,1746694889906.594,-48,18,-112
1746694889945.437,168151,1746694889926.406,-39,9,-124
1746694889965.344,168235,1746694889946.375,-45,14,-137
1746694889985.25,168289,1746694889966.188,-40,15,-128
1746694890005.156,168357,1746694889986.125,-39,17,-125
1746694890024.969,168376,1746694890006.031,-37,14,-125
1746694890044.844,168416,1746694890025.875,-42,16,-125
1746694890064.719,168388,1746694890045.719,-47,15,-125
1746694890084.656,168303,1746694890065.594,-36,17,-125
1746694890104.437,168181,1746694890085.562,-44,12,-112
1746694890124.281,168014,1746694890105.344,-39,20,-127
1746694890144.156,167854,1746694890125.1882,-50,23,-125
1746694890164.0,167675,1746694890145.031,-34,17,-133
1746694890183.844,167535,1746694890164.906,-40,19,-121
1746694890203.75,167421,1746694890184.781,-40,12,-121
1746694890223.594,167341,1746694890204.625,-47,15,-121
1746694890243.469,167301,1746694890224.469,-40,16,-131
1746694890263.312,167293,1746694890244.375,-40,16,-127
1746694890283.156,167279,1746694890264.219,-42,16,-135
1746694890303.031,167298,1746694890284.063,-36,12,-125
1746694890322.875,167292,1746694890303.906,-45,12,-125
1746694890342.719,167272,1746694890323.781,-50,15,-121
1746694890362.594,167263,1746694890343.656,-44,16,-125
1746694890382.437,167239,1746694890363.5,-48,17,-125
1746694890402.344,167171,1746694890383.344,-42,11,-125
1746694890422.156,167106,1746694890403.188,-40,15,-135
1746694890442.0,167037,1746694890423.094,-48,19,-125
1746694890461.875,166942,1746694890442.906,-37,31,-128
1746694890481.75,166877,1746694890462.75,-40,16,-120
1746694890501.563,166831,1746694890482.656,-47,20,-121
1746694890521.437,166808,1746694890502.469,-36,17,-114
1746694890541.344,166784,1746694890522.344,-49,20,-133
1746694890561.188,166790,1746694890542.219,-41,31,-125
1746694890581.063,166783,1746694890562.094,-37,12,-122
1746694890600.906,166786,1746694890581.969,-40,12,-125
1746694890620.781,166806,1746694890601.781,-49,7,-121
1746694890640.625,166813,1746694890621.688,-44,16,-133
1746694890660.5,166808,1746694890641.531,-33,19,-128
1746694890680.344,166824,1746694890661.375,-42,16,-129
1746694890700.219,166829,1746694890681.219,-39,12,-121
1746694890720.062,166809,1746694890701.094,-49,12,-112
1746694890739.906,166840,1746694890721.0,-40,15,-121
1746694890759.7808,166807,1746694890740.813,-39,15,-129
1746694890779.625,166832,1746694890760.656,-57,17,-125
1746694890799.469,166813,1746694890780.531,-47,12,-125
1746694890819.375,166823,1746694890800.375,-40,14,-121
1746694890839.156,166841,1746694890820.219,-45,16,-106
1746694890859.031,166847,1746694890840.062,-40,12,-117
1746694890878.875,166872,1746694890859.937,-41,19,-125
1746694890898.75,166870,1746694890879.781,-40,19,-121
1746694890918.625,166896,1746694890899.688,-48,12,-127
1746694890938.469,166931,1746694890919.5,-32,14,-112
1746694890958.312,166965,1746694890939.375,-49,24,-131
1746694890978.156,167030,1746694890959.219,-40,19,-133
1746694890998.031,167068,1746694890979.094,-39,22,-126
1746694891017.938,167114,1746694890998.938,-50,15,-116
1746694891037.781,167154,1746694891018.812,-41,17,-127
1746694891057.625,167206,1746694891038.687,-50,20,-112
1746694891077.469,167254,1746694891058.594,-40,12,-121
1746694891097.344,167319,1746694891078.344,-53,16,-127
1746694891117.188,167371,1746694891098.219,-41,16,-133
1746694891137.031,167428,1746694891118.094,-39,19,-133
1746694891156.969,167473,1746694891137.906,-37,16,-135
1746694891176.75,167512,1746694891157.844,-36,19,-130
1746694891196.594,167497,1746694891177.594,-42,14,-133
1746694891216.469,167408,1746694891197.5,-47,12,-126
1746694891236.281,167274,1746694891217.375,-49,12,-123
1746694891256.125,167096,1746694891237.156,-45,15,-121
1746694891276.063,166912,1746694891257.0,-47,17,-127
1746694891295.844,166749,1746694891276.906,-34,11,-130
1746694891315.719,166616,1746694891296.781,-47,20,-127
1746694891335.594,166514,1746694891316.594,-36,19,-127
1746694891355.469,166434,1746694891336.469,-40,14,-127
1746694891375.313,166397,1746694891356.375,-49,15,-125
1746694891395.187,166411,1746694891376.219,-41,20,-125
1746694891415.031,166377,1746694891396.094,-36,12,-134
1746694891434.906,166366,1746694891415.906,-44,12,-133
1746694891454.75,166356,1746694891435.812,-34,12,-125
1746694891474.625,166331,1746694891455.656,-50,15,-125
1746694891494.5,166319,1746694891475.5,-50,15,-133
1746694891514.344,166310,1746694891495.531,-39,21,-123
1746694891534.219,166286,1746694891515.281,-37,28,-125
1746694891554.094,166242,1746694891535.125,-50,17,-125
1746694891574.031,166167,1746694891555.0,-48,17,-121
1746694891593.781,166108,1746694891574.844,-37,11,-116
1746694891613.656,166067,1746694891594.719,-49,15,-125
1746694891633.5,166027,1746694891614.562,-40,8,-121
1746694891653.375,165980,1746694891634.375,-42,11,-125
1746694891673.219,165970,1746694891654.281,-48,17,-127
1746694891693.094,165968,1746694891674.156,-39,15,-117
1746694891712.969,165989,1746694891694.0,-48,15,-125
1746694891732.812,166002,1746694891713.844,-39,15,-125
1746694891752.656,166007,1746694891733.687,-37,14,-129
1746694891772.531,166030,1746694891753.594,-45,15,-130
1746694891792.375,166064,1746694891773.438,-37,15,-121
1746694891812.219,166064,1746694891793.281,-47,14,-112
1746694891832.094,166056,1746694891813.094,-36,12,-112
1746694891851.938,166093,1746694891833.0,-40,19,-130
1746694891871.781,166075,1746694891852.844,-40,13,-133
1746694891891.687,166097,1746694891872.687,-45,17,-125
1746694891911.469,166114,1746694891892.562,-45,7,-125
1746694891931.375,166113,1746694891912.406,-45,12,-121
1746694891951.25,166114,1746694891932.281,-47,15,-112
1746694891971.063,166124,1746694891952.125,-48,14,-125
1746694891990.937,166138,1746694891971.969,-45,16,-112
1746694892010.781,166180,1746694891991.844,-47,15,-112
1746694892030.656,166209,1746694892011.719,-40,16,-129
1746694892050.531,166241,1746694892031.531,-36,12,-127
1746694892070.344,166277,1746694892051.437,-40,16,-127
1746694892090.219,166333,1746694892071.25,-41,16,-116
1746694892110.094,166342,1746694892091.125,-49,11,-121
1746694892129.938,166407,1746694892111.0,-43,15,-128
1746694892149.781,166444,1746694892130.906,-40,12,-130
1746694892169.656,166537,1746694892150.687,-50,16,-128
1746694892189.531,166609,1746694892170.563,-46,17,-108
1746694892209.406,166688,1746694892190.406,-49,15,-125
1746694892229.219,166757,1746694892210.281,-44,16,-112
1746694892249.094,166819,1746694892230.156,-36,18,-121
1746694892268.969,166882,1746694892250.0,-40,14,-133
1746694892288.8132,166940,1746694892269.875,-47,17,-126
1746694892308.625,167026,1746694892289.688,-48,15,-121
1746694892328.5,167095,1746694892309.531,-36,17,-130
1746694892348.375,167149,1746694892329.406,-37,17,-123
1746694892368.219,167230,1746694892349.25,-40,15,-133
1746694892388.063,167308,1746694892369.094,-49,12,-125
1746694892407.938,167320,1746694892388.969,-36,15,-129
1746694892427.781,167258,1746694892408.844,-41,12,-137
1746694892447.656,167136,1746694892428.656,-37,14,-121
1746694892467.469,166974,1746694892448.563,-50,19,-112
1746694892487.344,166763,1746694892468.375,-40,17,-125
1746694892507.219,166593,1746694892488.25,-49,16,-133
1746694892527.062,166420,1746694892508.094,-41,19,-137
1746694892546.906,166310,1746694892527.969,-52,16,-125
1746694892566.781,166197,1746694892547.844,-45,15,-125
1746694892586.625,166129,1746694892567.687,-37,15,-125
1746694892606.5,166116,1746694892587.5,-39,25,-131
1746694892626.375,166116,1746694892607.375,-40,14,-121
1746694892646.188,166108,1746694892627.281,-56,16,-133
1746694892666.063,166102,1746694892647.094,-36,15,-122
1746694892685.906,166071,1746694892666.937,-48,21,-132
1746694892705.719,166055,1746694892686.781,-51,39,-125
1746694892725.594,166024,1746694892706.625,-36,15,-127
1746694892745.438,165978,1746694892726.5,-40,16,-125
1746694892765.281,165949,1746694892746.281,-50,6,-129
1746694892785.156,165870,1746694892766.187,-40,17,-112
1746694892805.0,165835,1746694892786.031,-45,17,-125
1746694892824.875,165748,1746694892805.906,-40,12,-112
1746694892844.719,165720,1746694892825.75,-45,19,-121
1746694892864.562,165661,1746694892845.594,-42,16,-121
1746694892884.406,165636,1746694892865.469,-46,17,-122
1746694892904.281,165626,1746694892885.281,-41,11,-112
1746694892924.156,165633,1746694892905.156,-47,16,-127
1746694892944.0,165634,1746694892925.031,-36,24,-125
1746694892963.875,165648,1746694892944.906,-49,12,-112
1746694892983.781,165657,1746694892964.75,-40,15,-112
1746694893003.594,165681,1746694892984.594,-40,16,-116
1746694893023.438,165667,1746694893004.5,-42,15,-129
1746694893043.312,165664,1746694893024.344,-42,16,-125
1746694893063.156,165684,1746694893044.219,-37,20,-131
1746694893083.031,165714,1746694893064.063,-41,16,-125
1746694893102.875,165729,1746694893083.875,-37,15,-121
1746694893122.75,165715,1746694893103.812,-40,15,-117
1746694893142.594,165722,1746694893123.625,-40,12,-125
1746694893162.469,165727,1746694893143.469,-40,16,-129
1746694893182.313,165725,1746694893163.344,-39,15,-125
1746694893202.156,165713,1746694893183.187,-40,7,-120
1746694893222.031,165732,1746694893203.062,-43,16,-121
1746694893241.875,165767,1746694893222.906,-44,10,-121
1746694893261.719,165780,1746694893242.781,-39,12,-125
1746694893281.594,165827,1746694893262.656,-49,15,-125
1746694893301.562,165858,1746694893282.531,-42,12,-125
1746694893321.344,165890,1746694893302.438,-39,12,-126
1746694893341.188,165945,1746694893322.25,-45,16,-125
1746694893361.063,165999,1746694893342.094,-41,12,-125
1746694893380.906,166084,1746694893361.969,-33,8,-125
1746694893400.75,166145,1746694893381.813,-40,15,-127
1746694893420.594,166196,1746694893401.656,-34,15,-127
1746694893440.438,166273,1746694893421.5,-40,7,-117
1746694893460.344,166333,1746694893441.375,-44,17,-116
1746694893480.187,166415,1746694893461.219,-45,8,-125
1746694893500.031,166503,1746694893481.063,-49,19,-124
1746694893519.875,166575,1746694893500.969,-40,16,-127
1746694893539.75,166647,1746694893520.812,-45,15,-122
1746694893559.594,166707,1746694893540.625,-32,17,-125
1746694893579.469,166788,1746694893560.5,-49,16,-135
1746694893599.313,166859,1746694893580.375,-39,15,-125
1746694893619.188,166944,1746694893600.25,-33,17,-122
1746694893639.062,167011,1746694893620.062,-40,14,-121
1746694893658.937,167091,1746694893639.906,-45,19,-127
1746694893678.781,167155,1746694893659.844,-44,24,-125
1746694893698.719,167203,1746694893679.688,-39,14,-128
1746694893718.531,167214,1746694893699.594,-36,15,-125
1746694893738.375,167149,1746694893719.406,-40,12,-116
1746694893758.25,167015,1746694893739.281,-44,15,-125
1746694893778.094,166830,1746694893759.125,-50,31,-112
1746694893797.969,166669,1746694893779.0,-42,15,-125
1746694893817.781,166487,1746694893798.844,-47,17,-120
1746694893837.656,166326,1746694893818.719,-51,13,-117
1746694893857.531,166227,1746694893838.594,-36,9,-129
1746694893877.4058,166135,1746694893858.437,-36,19,-130
1746694893897.25,166089,1746694893878.281,-45,15,-125
1746694893917.125,166073,1746694893898.125,-34,12,-125
1746694893937.0,166063,1746694893918.031,-42,19,-125
1746694893956.875,166055,1746694893937.875,-48,16,-125
1746694893976.719,166119,1746694893957.781,-40,16,-135
1746694893996.594,166827,1746694893977.625,-68,16,-137
1746694894016.469,167531,1746694893997.469,-121,-17,-158
1746694894036.344,163699,1746694894017.375,-157,-61,-270
1746694894056.156,169695,1746694894037.219,81,83,-272
1746694894076.031,170446,1746694894057.062,444,35,144
1746694894095.938,170871,1746694894076.906,-305,62,240
1746694894115.781,171720,1746694894096.812,-393,56,123
1746694894135.625,171299,1746694894116.656,-132,-28,-49
1746694894155.5,170147,1746694894136.563,-153,-40,-96
1746694894175.375,169948,1746694894156.375,-272,3,-100
1746694894195.281,170563,1746694894176.25,-170,46,-125
1746694894215.094,171579,1746694894196.156,15,24,-109
1746694894234.969,171925,1746694894215.969,78,76,-81
1746694894254.844,171498,1746694894235.813,59,51,-68
1746694894274.719,171411,1746694894255.688,-52,54,-109
1746694894294.562,171426,1746694894275.625,-106,40,-160
1746694894314.437,171307,1746694894295.5,-60,35,-160
1746694894334.313,171225,1746694894315.313,-24,44,-141
1746694894354.156,171121,1746694894335.25,-23,48,-105
1746694894374.031,170585,1746694894355.062,-23,54,-69
1746694894393.906,171874,1746694894374.969,-92,67,143
1746694894413.781,173623,1746694894394.813,62,35,-153
1746694894433.625,174742,1746694894414.656,-103,86,-80
1746694894453.5,175658,1746694894434.562,-97,51,-96
1746694894473.344,176228,1746694894454.375,-53,57,-112
1746694894493.219,176437,1746694894474.219,-64,76,-141
1746694894513.063,176260,1746694894494.094,-66,56,-160
1746694894532.969,176033,1746694894513.937,-92,31,-152
1746694894552.781,175858,1746694894533.844,-105,17,-144
1746694894572.656,175901,1746694894553.656,-89,38,-129
1746694894592.469,176132,1746694894573.531,-88,31,-112
1746694894612.344,176493,1746694894593.375,-84,31,-103
1746694894632.219,176946,1746694894613.25,-92,28,-93
1746694894652.094,177420,1746694894633.094,-88,23,-96
1746694894671.938,177754,1746694894652.969,-93,24,-96
1746694894691.813,178063,1746694894672.937,-84,31,-96
1746694894711.656,178347,1746694894692.687,-75,30,-104
1746694894731.531,178635,1746694894712.562,-73,44,-96
1746694894751.344,178906,1746694894732.375,-65,43,-104
1746694894771.313,179217,1746694894752.281,-66,47,-96
1746694894791.063,179492,1746694894772.187,-64,47,-109
1746694894810.969,179745,1746694894791.969,-72,44,-109
1746694894830.781,179949,1746694894811.844,-70,36,-109
1746694894850.625,180050,1746694894831.719,-66,35,-109
1746694894870.656,180100,1746694894851.562,-61,37,-113
1746694894890.406,180065,1746694894871.531,-79,32,-113
1746694894910.219,179964,1746694894891.281,-68,23,-112
1746694894930.094,179746,1746694894911.125,-74,28,-112
1746694894949.938,179480,1746694894930.969,-60,20,-112
1746694894969.812,179194,1746694894950.844,-74,32,-117
1746694894989.656,178947,1746694894970.687,-68,32,-109
1746694895009.5,178770,1746694894990.563,-72,31,-104
1746694895029.375,178646,1746694895010.406,-63,32,-109
1746694895049.219,178580,1746694895030.25,-68,19,-109
1746694895069.062,178532,1746694895050.125,-79,28,-96
1746694895088.906,178550,1746694895070.0,-72,28,-96
1746694895108.781,178533,1746694895089.813,-72,34,-109
1746694895128.625,178496,1746694895109.688,-77,25,-109
1746694895148.5,178463,1746694895129.5,-77,28,-96
1746694895168.344,178455,1746694895149.406,-66,31,-106
1746694895188.188,178463,1746694895169.25,-65,35,-109
1746694895208.094,178443,1746694895189.094,-73,34,-104
1746694895227.906,178362,1746694895208.9692,-64,38,-108
1746694895247.781,178309,1746694895228.844,-82,51,-113
1746694895267.625,178182,1746694895248.688,-79,33,-105
1746694895287.563,177978,1746694895268.5,-66,31,-109
1746694895307.375,177752,1746694895288.375,-66,28,-113
1746694895327.281,177564,1746694895308.281,-68,24,-109
1746694895347.125,177379,1746694895328.156,-64,32,-109
1746694895367.0,177258,1746694895348.0,-66,29,-104
1746694895386.875,177138,1746694895367.875,-70,31,-109
1746694895406.719,177057,1746694895387.781,-68,33,-112
1746694895426.562,176923,1746694895407.594,-68,33,-112
1746694895446.469,176818,1746694895427.438,-64,31,-109
1746694895466.281,176693,1746694895447.375,-77,25,-107
1746694895486.156,176535,1746694895467.187,-79,27,-96
1746694895506.031,176417,1746694895487.031,-68,31,-105
1746694895525.875,176334,1746694895506.938,-74,30,-107
1746694895545.719,176227,1746694895526.75,-68,19,-109
1746694895565.562,176173,1746694895546.625,-63,28,-109
1746694895585.437,176107,1746694895566.469,-64,40,-104
1746694895605.344,176056,1746694895586.313,-69,30,-96
1746694895625.156,175945,1746694895606.188,-74,31,-104
1746694895645.031,175856,1746694895626.062,-63,31,-95
1746694895664.906,175776,1746694895645.875,-63,28,-100
1746694895684.75,175719,1746694895665.781,-49,28,-106
1746694895704.594,175695,1746694895685.625,-66,28,-104
1746694895724.469,175720,1746694895705.5,-73,30,-112
1746694895744.312,175808,1746694895725.344,-68,31,-121
1746694895764.219,175891,1746694895745.187,-61,35,-109
1746694895784.094,175884,1746694895765.094,-61,27,-104
1746694895803.938,175903,1746694895785.0,-74,33,-109
1746694895823.812,175927,1746694895804.812,-57,31,-100
1746694895843.687,175952,1746694895824.719,-72,32,-96
1746694895863.531,175931,1746694895844.563,-68,25,-96
1746694895883.375,175867,1746694895864.438,-77,27,-112
1746694895903.25,175748,1746694895884.25,-74,24,-111
1746694895923.125,175542,1746694895904.125,-42,25,-112
1746694895942.938,175353,1746694895924.0,-79,24,-100
1746694895962.813,175125,1746694895943.844,-68,30,-104
1746694895982.687,174903,1746694895963.719,-79,47,-96
1746694896002.562,174671,1746694895983.531,-66,25,-111
1746694896022.406,174524,1746694896003.438,-60,27,-109
1746694896042.313,174410,1746694896023.344,-72,30,-109
1746694896062.156,174355,1746694896043.219,-61,31,-112
1746694896082.031,174348,1746694896063.062,-76,38,-96
1746694896101.875,174378,1746694896082.938,-71,31,-109
1746694896121.75,174417,1746694896102.781,-80,31,-96
1746694896141.594,174491,1746694896122.625,-73,28,-96
1746694896161.437,174598,1746694896142.469,-68,28,-103
1746694896181.312,174687,1746694896162.344,-65,28,-109
1746694896201.188,174753,1746694896182.25,-73,31,-109
1746694896221.063,174827,1746694896202.063,-61,30,-109
1746694896241.031,174894,1746694896221.937,-73,30,-96
1746694896260.781,174923,1746694896241.9382,-63,27,-96
1746694896280.656,174966,1746694896261.688,-72,15,-96
1746694896300.531,175022,1746694896281.563,-72,28,-96
1746694896320.375,175093,1746694896301.406,-73,25,-96
1746694896340.219,175185,1746694896321.281,-78,28,-109
1746694896360.156,175289,1746694896341.125,-77,28,-96
1746694896379.969,175447,1746694896360.969,-64,23,-104
1746694896399.812,175638,1746694896380.8442,-68,27,-109
1746694896419.656,175817,1746694896400.719,-58,28,-111
1746694896439.531,176038,1746694896420.563,-64,34,-125
1746694896459.406,176234,1746694896440.406,-63,31,-110
1746694896479.25,176456,1746694896460.312,-71,27,-109
1746694896499.156,176649,1746694896480.187,-77,28,-109
1746694896519.031,176854,1746694896500.031,-64,32,-96
1746694896538.906,177032,1746694896519.906,-73,31,-104
1746694896558.75,177213,1746694896539.844,-63,30,-96
1746694896578.625,177402,1746694896559.656,-73,29,-105
1746694896598.469,177573,1746694896579.5,-65,28,-109
1746694896618.344,177750,1746694896599.344,-76,28,-109
1746694896638.188,177929,1746694896619.219,-58,24,-96
1746694896658.125,178101,1746694896639.125,-71,8,-109
1746694896677.906,178261,1746694896658.937,-63,27,-106
1746694896697.813,178445,1746694896678.813,-66,27,-96
1746694896717.656,178614,1746694896698.719,-68,31,-105
1746694896737.531,178766,1746694896718.594,-76,28,-109
1746694896757.406,178939,1746694896738.437,-61,32,-96
1746694896777.313,179136,1746694896758.344,-74,32,-113
1746694896797.125,179309,1746694896778.188,-65,38,-106
1746694896817.0,179422,1746694896798.0,-66,32,-112
1746694896836.875,179485,1746694896817.906,-72,24,-104
1746694896856.75,179477,1746694896837.781,-66,27,-96
1746694896876.594,179434,1746694896857.625,-68,27,-96
1746694896896.437,179345,1746694896877.562,-68,28,-112
1746694896916.312,179253,1746694896897.344,-61,30,-109
1746694896936.156,179168,1746694896917.188,-74,24,-96
1746694896956.0,179113,1746694896937.031,-77,28,-109
1746694896975.875,179062,1746694896956.906,-77,24,-96
1746694896995.75,179063,1746694896976.75,-79,24,-96
1746694897015.625,179075,1746694896996.625,-68,24,-109
1746694897035.469,179117,1746694897016.5,-72,28,-112
1746694897055.313,179171,1746694897036.375,-61,31,-111
1746694897075.219,179248,1746694897056.187,-76,23,-100
1746694897095.062,179364,1746694897076.094,-74,28,-109
1746694897114.906,179445,1746694897095.969,-73,53,-96
1746694897134.813,179491,1746694897115.813,-77,31,-105
1746694897154.719,179570,1746694897135.687,-72,28,-96
1746694897174.562,179592,1746694897155.594,-77,15,-103
1746694897194.438,179557,1746694897175.531,-79,28,-96
1746694897214.313,179569,1746694897195.312,-68,28,-96
1746694897234.1868,179560,1746694897215.156,-71,29,-108
1746694897254.031,179515,1746694897235.094,-66,28,-96
1746694897273.906,179545,1746694897254.906,-68,31,-109
1746694897293.75,179560,1746694897274.75,-66,25,-104
1746694897313.656,179598,1746694897294.656,-64,31,-96
1746694897333.469,179640,1746694897314.531,-73,28,-96
1746694897353.344,179717,1746694897334.406,-73,30,-112
1746694897373.219,179744,1746694897354.25,-70,32,-96
1746694897393.094,179786,1746694897374.094,-77,33,-105
1746694897412.937,179845,1746694897393.969,-72,27,-109
1746694897432.813,179884,1746694897413.844,-71,25,-109
1746694897452.656,179941,1746694897433.688,-69,22,-96
1746694897472.562,179990,1746694897453.562,-69,27,-103
1746694897492.4368,180034,1746694897473.437,-81,31,-109
1746694897512.25,180047,1746694897493.281,-68,23,-106
1746694897532.125,180035,1746694897513.156,-68,35,-114
1746694897552.0,180011,1746694897533.0,-68,28,-104
1746694897571.844,179965,1746694897552.875,-77,24,-121
1746694897591.687,179881,1746694897572.781,-67,31,-113
1746694897611.594,179812,1746694897592.563,-77,24,-96
1746694897631.469,179735,1746694897612.469,-80,28,-109
1746694897651.281,179668,1746694897632.375,-76,32,-96
1746694897671.156,179633,1746694897652.219,-68,32,-96
1746694897691.031,179589,1746694897672.125,-77,24,-105
1746694897710.906,179502,1746694897691.875,-69,25,-99
1746694897730.75,179373,1746694897711.812,-69,25,-96
1746694897750.625,179184,1746694897731.656,-72,28,-111
1746694897770.531,179002,1746694897751.5,-64,24,-112
1746694897790.375,178772,1746694897771.375,-62,28,-104
1746694897810.219,178596,1746694897791.25,-66,32,-104
1746694897830.094,178451,1746694897811.094,-69,28,-109
1746694897849.938,178334,1746694897830.969,-66,32,-96
1746694897869.813,178217,1746694897850.813,-72,24,-96
1746694897889.656,178137,1746694897870.719,-80,27,-96
1746694897909.531,178079,1746694897890.562,-72,39,-113
1746694897929.406,178067,1746694897910.438,-68,31,-109
1746694897949.25,178061,1746694897930.25,-68,30,-100
1746694897969.125,178036,1746694897950.156,-77,28,-99
1746694897989.0,178009,1746694897970.031,-64,24,-109
1746694898008.844,177989,1746694897989.844,-64,27,-109
1746694898028.719,177980,1746694898009.844,-77,24,-121
1746694898048.594,178003,1746694898029.625,-69,27,-109
1746694898068.469,178035,1746694898049.469,-76,34,-109
1746694898088.312,178061,1746694898069.344,-64,30,-111
1746694898108.188,178061,1746694898089.188,-74,31,-104
1746694898128.031,178051,1746694898109.062,-66,30,-111
1746694898147.906,178044,1746694898128.937,-64,32,-105
1746694898167.781,178032,1746694898148.781,-68,28,-96
1746694898187.594,178020,1746694898168.656,-65,27,-109
1746694898207.5,178020,1746694898188.531,-72,28,-104
1746694898227.375,178071,1746694898208.375,-74,28,-104
1746694898247.25,178130,1746694898228.219,-81,23,-100
1746694898267.094,178187,1746694898248.125,-74,30,-109
1746694898287.031,178242,1746694898268.0,-74,28,-104
1746694898306.812,178326,1746694898287.844,-66,27,-96
1746694898326.813,178380,1746694898307.719,-63,32,-109
1746694898346.563,178440,1746694898327.563,-72,32,-111
1746694898366.438,178518,1746694898347.469,-72,30,-112
1746694898386.344,178584,1746694898367.344,-64,28,-109
1746694898406.187,178646,1746694898387.187,-64,31,-104
1746694898426.031,178691,1746694898407.063,-68,27,-96
1746694898445.938,178731,1746694898426.969,-68,28,-109
1746694898465.781,178766,1746694898446.781,-71,24,-104
1746694898485.687,178810,1746694898466.687,-64,32,-96
1746694898505.563,178811,1746694898486.563,-71,25,-96
1746694898525.438,178811,1746694898506.469,-70,31,-109
1746694898545.312,178823,1746694898526.344,-68,31,-109
1746694898565.156,178824,1746694898546.187,-68,31,-109
1746694898585.031,178822,1746694898566.063,-79,30,-96
1746694898604.906,178818,1746694898585.938,-66,28,-98
1746694898624.75,178789,1746694898605.781,-72,31,-110
1746694898644.594,178778,1746694898625.594,-77,44,-104
1746694898664.469,178786,1746694898645.5,-82,28,-96
1746694898684.313,178802,1746694898665.344,-58,24,-96
1746694898704.219,178779,1746694898685.156,-76,24,-129
1746694898724.031,178683,1746694898705.094,-80,27,-109
1746694898743.906,178534,1746694898724.969,-64,28,-109
1746694898763.781,178283,1746694898744.781,-68,30,-112
1746694898783.6558,178021,1746694898764.656,-69,32,-96
1746694898803.5,177757,1746694898784.562,-65,31,-96
1746694898823.375,177512,1746694898804.4382,-80,30,-96
1746694898843.25,177327,1746694898824.25,-56,28,-96
1746694898863.094,177207,1746694898844.125,-77,35,-96
1746694898882.937,177107,1746694898864.0,-64,35,-96
1746694898902.844,177074,1746694898883.844,-69,28,-104
1746694898922.719,177047,1746694898903.688,-64,28,-103
1746694898942.563,177071,1746694898923.594,-64,28,-104
1746694898962.437,177064,1746694898943.437,-79,28,-105
1746694898982.281,177062,1746694898963.344,-80,28,-104
1746694899002.156,177053,1746694898983.156,-68,30,-104
1746694899022.0,177076,1746694899003.031,-71,25,-105
1746694899041.844,177074,1746694899022.906,-81,36,-109
1746694899061.719,177085,1746694899042.75,-79,31,-96
1746694899081.594,177039,1746694899062.594,-68,28,-105
1746694899101.438,177016,1746694899082.5,-69,33,-100
1746694899121.281,176997,1746694899102.344,-72,27,-105
1746694899141.156,177011,1746694899122.187,-77,28,-109
1746694899161.031,177011,1746694899142.125,-68,31,-96
1746694899180.875,177019,1746694899161.906,-68,27,-104
1746694899200.7192,177075,1746694899181.75,-65,36,-109
1746694899220.594,177128,1746694899201.625,-71,25,-96
1746694899240.531,177198,1746694899221.469,-68,28,-109
1746694899260.313,177264,1746694899241.375,-72,31,-103
1746694899280.156,177305,1746694899261.219,-82,29,-109
1746694899300.031,177362,1746694899281.0618,-68,31,-104
1746694899319.906,177453,1746694899300.906,-72,23,-109
1746694899339.781,177502,1746694899320.781,-74,30,-106
1746694899359.625,177553,1746694899340.656,-77,28,-96
1746694899379.5,177617,1746694899360.531,-81,39,-106
1746694899399.375,177668,1746694899380.375,-66,30,-96
1746694899419.25,177715,1746694899400.219,-72,28,-103
1746694899439.094,177762,1746694899420.156,-71,25,-112
1746694899459.0,177814,1746694899440.031,-69,30,-96
1746694899478.844,177862,1746694899459.875,-71,31,-105
1746694899498.688,177911,1746694899479.75,-66,28,-109
1746694899518.563,177943,1746694899499.594,-73,28,-109
1746694899538.469,177982,1746694899519.469,-64,31,-109
1746694899558.281,178056,1746694899539.3118,-68,28,-103
1746694899578.125,178090,1746694899559.156,-76,24,-109
1746694899597.969,178121,1746694899579.031,-64,25,-96
1746694899617.844,178182,1746694899598.875,-76,30,-96
1746694899637.719,178212,1746694899618.75,-66,31,-96
1746694899657.562,178233,1746694899638.594,-71,25,-96
1746694899677.406,178278,1746694899658.469,-80,28,-104
1746694899697.2808,178345,1746694899678.313,-66,27,-96
1746694899717.156,178372,1746694899698.187,-72,35,-96
1746694899737.031,178409,1746694899718.031,-68,24,-96
1746694899756.875,178443,1746694899737.938,-72,22,-109
1746694899776.781,178496,1746694899757.812,-72,32,-113
1746694899796.656,178533,1746694899777.625,-70,24,-112
1746694899816.531,178570,1746694899797.531,-66,27,-96
1746694899836.406,178608,1746694899817.438,-71,28,-108
1746694899856.281,178642,1746694899837.312,-77,32,-112
1746694899876.156,178677,1746694899857.156,-72,20,-112
1746694899896.031,178745,1746694899877.0,-71,28,-112
1746694899915.906,178787,1746694899896.938,-73,30,-96
1746694899935.781,178843,1746694899916.781,-71,28,-104
1746694899955.656,178901,1746694899936.687,-72,31,-96
1746694899975.531,178974,1746694899956.563,-68,32,-96
1746694899995.375,179021,1746694899976.438,-74,23,-96
1746694900015.281,179032,1746694899996.25,-64,30,-95
1746694900035.156,179075,1746694900016.156,-76,30,-109
1746694900055.0,179123,1746694900036.031,-64,25,-105
1746694900074.906,179170,1746694900055.875,-67,24,-104
1746694900094.75,179188,1746694900075.781,-72,31,-109
1746694900114.594,179188,1746694900095.625,-72,35,-109
1746694900134.5,179141,1746694900115.5,-75,25,-109
1746694900154.469,178981,1746694900135.406,-66,26,-109
1746694900174.25,178748,1746694900155.25,-68,32,-113
1746694900194.062,178420,1746694900175.125,-68,31,-105
1746694900213.937,178105,1746694900194.937,-69,43,-104
1746694900233.813,177841,1746694900214.844,-65,31,-108
1746694900253.688,177651,1746694900234.719,-73,24,-96
1746694900273.5,177542,1746694900254.562,-84,44,-96
1746694900293.406,177474,1746694900274.437,-74,31,-109
1746694900313.25,177402,1746694900294.25,-65,31,-96
1746694900333.125,177278,1746694900314.156,-64,28,-96
1746694900352.969,177141,1746694900334.0,-63,30,-96
1746694900372.844,177058,1746694900353.875,-75,31,-96
1746694900392.75,177016,1746694900373.75,-79,28,-96
1746694900412.625,176998,1746694900393.656,-80,25,-108
1746694900432.469,176954,1746694900413.469,-66,31,-104
1746694900452.344,176889,1746694900433.406,-64,29,-105
1746694900472.25,176797,1746694900453.219,-80,28,-100
1746694900492.156,176708,1746694900473.125,-74,28,-104
1746694900511.969,176638,1746694900493.031,-68,28,-109
1746694900531.875,176584,1746694900512.906,-79,30,-96
1746694900551.719,176541,1746694900532.75,-69,34,-109
1746694900571.594,176467,1746694900552.625,-70,44,-109
1746694900591.469,176435,1746694900572.5,-74,28,-96
1746694900611.312,176366,1746694900592.375,-75,28,-96
1746694900631.219,176335,1746694900612.188,-80,31,-92
1746694900651.063,176302,1746694900632.063,-68,24,-104
1746694900670.906,176282,1746694900651.969,-71,35,-109
1746694900690.812,176239,1746694900671.875,-65,31,-105
1746694900710.656,176232,1746694900691.688,-74,28,-109
1746694900730.531,176210,1746694900711.563,-74,31,-96
1746694900750.406,176198,1746694900731.406,-58,32,-109
1746694900770.281,176236,1746694900751.281,-72,31,-111
1746694900790.156,176250,1746694900771.156,-69,22,-105
1746694900810.0,176272,1746694900791.0308,-74,31,-96
1746694900829.906,176294,1746694900810.906,-72,35,-111
1746694900849.719,176302,1746694900830.812,-64,33,-106
1746694900869.594,176313,1746694900850.594,-73,31,-90
1746694900889.438,176329,1746694900870.469,-77,28,-104
1746694900909.312,176361,1746694900890.344,-73,51,-105
1746694900929.187,176376,1746694900910.187,-66,28,-111
1746694900949.063,176415,1746694900930.063,-74,28,-109
1746694900968.906,176453,1746694900949.938,-68,27,-96
1746694900988.781,176468,1746694900969.844,-69,32,-96
1746694901008.687,176507,1746694900989.656,-71,27,-96
1746694901028.531,176572,1746694901009.688,-68,31,-106
1746694901048.375,176634,1746694901029.438,-64,28,-96
1746694901068.25,176703,1746694901049.312,-64,28,-105
1746694901088.125,176780,1746694901069.156,-74,31,-109
1746694901108.0,176848,1746694901089.0,-68,31,-96
1746694901127.844,176897,1746694901108.875,-68,25,-109
1746694901147.719,176988,1746694901128.75,-68,24,-96
1746694901167.687,177041,1746694901148.594,-78,28,-96
1746694901187.437,177089,1746694901168.563,-80,36,-96
1746694901207.281,177147,1746694901188.313,-73,31,-109
1746694901227.156,177226,1746694901208.188,-80,32,-105
1746694901247.0,177300,1746694901228.062,-81,30,-105
1746694901266.875,177374,1746694901247.875,-68,28,-96
1746694901286.719,177446,1746694901267.781,-68,28,-96
1746694901306.594,177502,1746694901287.625,-80,25,-96
1746694901326.469,177604,1746694901307.469,-77,27,-109
1746694901346.312,177659,1746694901327.375,-64,25,-106
1746694901366.188,177721,1746694901347.156,-64,27,-113
1746694901386.063,177776,1746694901367.063,-65,24,-109
1746694901405.937,177825,1746694901386.937,-69,30,-96
1746694901425.781,177870,1746694901406.812,-80,30,-112
1746694901445.656,177843,1746694901426.656,-72,31,-104
1746694901465.5,177765,1746694901446.563,-68,27,-96
1746694901485.375,177598,1746694901466.5,-74,27,-96
1746694901505.219,177378,1746694901486.25,-71,28,-96
1746694901525.062,177143,1746694901506.125,-69,25,-109
1746694901544.969,176860,1746694901525.969,-80,30,-96
1746694901564.844,176631,1746694901545.844,-75,33,-106
1746694901584.719,176470,1746694901565.75,-58,33,-109
1746694901604.562,176350,1746694901585.531,-68,28,-105
1746694901624.438,176259,1746694901605.469,-68,30,-109
1746694901644.281,176252,1746694901625.313,-64,30,-111
1746694901664.125,176226,1746694901645.156,-72,28,-105
1746694901684.0,176247,1746694901665.062,-70,25,-96
1746694901703.844,176243,1746694901684.875,-66,38,-96
1746694901723.75,176246,1746694901704.75,-77,33,-96
1746694901743.562,176233,1746694901724.656,-67,24,-96
1746694901763.469,176243,1746694901744.5,-66,24,-104
1746694901783.313,176241,1746694901764.344,-72,27,-105
1746694901803.188,176203,1746694901784.219,-73,32,-96
1746694901823.062,176180,1746694901804.156,-81,28,-109
1746694901842.906,176147,1746694901823.969,-74,35,-109
1746694901862.781,176119,1746694901843.781,-72,32,-96
1746694901882.688,176080,1746694901863.656,-80,28,-104
1746694901902.531,176056,1746694901883.594,-72,31,-106
1746694901922.375,176044,1746694901903.437,-64,25,-96
1746694901942.25,175996,1746694901923.25,-74,27,-96
1746694901962.094,175942,1746694901943.156,-72,31,-109
1746694901981.9692,175902,1746694901963.0,-77,31,-109
1746694902001.844,175927,1746694901982.844,-79,30,-98
1746694902021.687,175951,1746694902002.75,-76,27,-96
1746694902041.563,176006,1746694902022.563,-75,43,-105
1746694902061.438,176049,1746694902042.438,-81,31,-96
1746694902081.312,176098,1746694902062.344,-72,30,-109
1746694902101.156,176155,1746694902082.156,-72,25,-84
1746694902121.031,176226,1746694902102.031,-68,33,-96
1746694902140.875,176284,1746694902121.875,-69,31,-111
1746694902160.75,176337,1746694902141.781,-73,30,-111
1746694902180.625,176361,1746694902161.625,-66,30,-109
1746694902200.5,176402,1746694902181.469,-72,30,-104
1746694902220.313,176412,1746694902201.375,-66,30,-109
1746694902240.187,176423,1746694902221.25,-77,30,-109
1746694902260.062,176434,1746694902241.062,-68,28,-104
1746694902279.938,176462,1746694902260.938,-72,32,-109
1746694902299.75,176478,1746694902280.813,-73,33,-105
1746694902319.625,176473,1746694902300.656,-69,36,-103
1746694902339.5,176480,1746694902320.5,-68,24,-109
1746694902359.375,176497,1746694902340.406,-65,32,-96
1746694902379.219,176516,1746694902360.25,-72,32,-109
1746694902399.094,176532,1746694902380.094,-58,30,-104
1746694902419.062,176568,1746694902399.937,-65,30,-109
1746694902438.781,176604,1746694902419.812,-77,48,-108
1746694902458.625,176653,1746694902439.688,-79,31,-109
1746694902478.5,176669,1746694902459.563,-69,22,-104
1746694902498.375,176707,1746694902479.375,-68,28,-108
1746694902518.219,176733,1746694902499.281,-72,34,-106
1746694902538.094,176747,1746694902519.125,-69,28,-109
1746694902557.969,176786,1746694902539.031,-69,31,-111
1746694902577.844,176808,1746694902558.844,-65,27,-96
1746694902597.687,176843,1746694902578.75,-77,28,-96
1746694902617.563,176888,1746694902598.594,-63,30,-104
1746694902637.438,176921,1746694902618.469,-63,28,-109
1746694902657.312,176952,1746694902638.312,-81,27,-96
1746694902677.156,176984,1746694902658.187,-68,31,-96
1746694902697.125,176910,1746694902678.063,-61,31,-110
1746694902716.875,176766,1746694902698.031,-64,27,-105
1746694902736.75,176545,1746694902717.75,-76,24,-106
1746694902756.625,176260,1746694902737.656,-72,31,-112
1746694902776.5,175963,1746694902757.5,-66,35,-109
1746694902796.375,175700,1746694902777.375,-65,32,-103
1746694902816.219,175502,1746694902797.25,-74,33,-96
1746694902836.062,175365,1746694902817.094,-81,23,-92
1746694902855.969,175284,1746694902837.0,-72,27,-96
1746694902875.844,175234,1746694902856.844,-74,35,-109
1746694902895.719,175233,1746694902876.719,-66,36,-97
1746694902915.594,175249,1746694902896.625,-68,32,-96
1746694902935.437,175285,1746694902916.469,-66,32,-104
1746694902955.281,175307,1746694902936.344,-73,28,-96
1746694902975.188,175334,1746694902956.187,-65,24,-96
1746694902995.0,175363,1746694902976.062,-65,30,-88
1746694903014.844,175333,1746694902995.906,-79,28,-96
1746694903034.719,175321,1746694903015.75,-72,28,-106
1746694903054.594,175244,1746694903035.594,-84,35,-104
1746694903074.437,175194,1746694903055.469,-69,23,-109
1746694903094.312,175162,1746694903075.375,-67,31,-96
1746694903114.156,175106,1746694903095.188,-69,31,-107
1746694903134.0,175077,1746694903115.063,-66,28,-109
1746694903153.906,175075,1746694903134.906,-72,24,-96
1746694903173.687,175074,1746694903154.781,-80,23,-104
1746694903193.562,175109,1746694903174.562,-68,33,-104
1746694903213.438,175109,1746694903194.438,-69,31,-109
1746694903233.25,175133,1746694903214.313,-75,33,-105
1746694903253.094,175132,1746694903234.156,-72,28,-96
1746694903272.969,175161,1746694903253.969,-64,26,-105
1746694903292.844,175165,1746694903273.844,-66,28,-104
1746694903312.656,175211,1746694903293.719,-68,28,-96
1746694903332.531,175218,1746694903313.594,-84,40,-129
1746694903352.375,175217,1746694903333.406,-59,28,-109
1746694903372.25,175240,1746694903353.281,-76,28,-96
1746694903392.063,175271,1746694903373.125,-77,25,-96
1746694903411.969,175292,1746694903392.969,-65,32,-109
1746694903431.812,175339,1746694903412.844,-74,31,-109
1746694903451.687,175357,1746694903432.719,-71,33,-109
1746694903471.531,175379,1746694903452.563,-68,27,-106
1746694903491.375,175391,1746694903472.406,-65,33,-100
1746694903511.25,175400,1746694903492.281,-85,24,-106
1746694903531.125,175395,1746694903512.125,-62,28,-109
1746694903550.937,175420,1746694903532.0,-72,27,-112
1746694903570.813,175426,1746694903551.844,-73,24,-100
1746694903590.688,175450,1746694903571.687,-71,30,-104
1746694903610.5,175477,1746694903591.562,-79,35,-105
1746694903630.375,175491,1746694903611.406,-77,30,-96
1746694903650.25,175529,1746694903631.281,-68,27,-109
1746694903670.094,175547,1746694903651.125,-79,31,-109
1746694903689.969,175574,1746694903671.094,-65,33,-109
1746694903709.812,175599,1746694903690.844,-74,28,-104
1746694903729.656,175608,1746694903710.719,-80,28,-109
1746694903749.563,175647,1746694903730.563,-77,28,-109
1746694903769.437,175671,1746694903750.437,-68,28,-104
1746694903789.3118,175700,1746694903770.312,-68,25,-109
1746694903809.125,175746,1746694903790.188,-68,34,-100
1746694903829.0,175740,1746694903810.0,-80,30,-104
1746694903848.875,175651,1746694903829.875,-53,30,-111
1746694903868.719,175467,1746694903849.781,-71,28,-109
1746694903888.594,175202,1746694903869.656,-60,32,-106
1746694903908.469,174886,1746694903889.469,-64,38,-103
1746694903928.344,174547,1746694903909.344,-65,28,-111
1746694903948.187,174255,1746694903929.25,-90,35,-111
1746694903968.094,174038,1746694903949.094,-71,28,-101
1746694903987.938,173855,1746694903968.969,-67,35,-109
1746694904007.812,173757,1746694903988.812,-77,37,-109
1746694904027.687,173665,1746694904008.75,-79,28,-109
1746694904047.531,173646,1746694904028.563,-71,28,-109
1746694904067.406,173674,1746694904048.438,-68,28,-109
1746694904087.25,173672,1746694904068.312,-68,28,-105
1746694904107.125,173715,1746694904088.156,-79,28,-112
1746694904126.969,173750,1746694904108.031,-74,30,-96
1746694904146.875,173769,1746694904127.875,-63,39,-108
1746694904166.688,173768,1746694904147.75,-76,24,-109
1746694904186.531,173765,1746694904167.594,-45,26,-105
1746694904206.406,173724,1746694904187.437,-71,30,-106
1746694904226.25,173704,1746694904207.281,-67,32,-104
1746694904246.094,173691,1746694904227.156,-81,21,-102
1746694904265.969,173679,1746694904246.969,-72,31,-100
1746694904285.844,173677,1746694904266.844,-68,31,-109
1746694904305.719,173679,1746694904286.719,-68,23,-109
1746694904325.531,173705,1746694904306.594,-77,31,-109
1746694904345.406,173740,1746694904326.469,-67,31,-119
1746694904365.25,173759,1746694904346.344,-66,35,-96
1746694904385.156,173801,1746694904366.125,-65,28,-104
1746694904404.969,173836,1746694904386.031,-72,31,-111
1746694904424.844,173892,1746694904405.937,-72,31,-112
1746694904444.719,173970,1746694904425.75,-62,35,-96
1746694904464.562,174051,1746694904445.625,-79,32,-105
1746694904484.438,174117,1746694904465.469,-68,28,-109
1746694904504.313,174215,1746694904485.344,-80,33,-96
1746694904524.187,174316,1746694904505.187,-72,46,-109
1746694904544.062,174431,1746694904525.062,-73,30,-104
1746694904563.906,174510,1746694904544.906,-68,24,-104
1746694904583.75,174624,1746694904564.813,-60,36,-109
1746694904603.625,174767,1746694904584.625,-73,27,-96
1746694904623.469,174911,1746694904604.469,-72,24,-100
1746694904643.344,175046,1746694904624.375,-69,40,-93
1746694904663.219,175202,1746694904644.219,-66,27,-96
1746694904683.063,175336,1746694904664.062,-64,30,-100
1746694904702.9368,175488,1746694904683.969,-77,27,-92
1746694904722.781,175636,1746694904703.844,-68,32,-96
1746694904742.656,175796,1746694904723.688,-64,30,-84
1746694904762.531,175961,1746694904743.625,-76,24,-109
1746694904782.437,176117,1746694904763.406,-65,30,-96
1746694904802.25,176288,1746694904783.313,-77,28,-92
1746694904822.125,176438,1746694904803.188,-71,28,-96
1746694904841.969,176593,1746694904823.0,-69,31,-96
1746694904861.875,176691,1746694904842.812,-73,33,-104
1746694904881.687,176726,1746694904862.75,-79,41,-96
1746694904901.563,176672,1746694904882.594,-72,28,-109
1746694904921.438,176545,1746694904902.438,-43,28,-109
1746694904941.312,176391,1746694904922.312,-72,31,-104
1746694904961.156,176252,1746694904942.156,-74,31,-96
1746694904981.0,176143,1746694904962.063,-81,64,-109
1746694905000.875,176077,1746694904981.875,-66,29,-105
1746694905020.781,176062,1746694905001.75,-72,33,-104
1746694905040.594,176068,1746694905021.625,-68,23,-111
1746694905060.594,176120,1746694905041.5,-64,32,-96
1746694905080.344,176149,1746694905061.344,-64,30,-105
1746694905100.219,176180,1746694905081.219,-68,30,-109
1746694905120.062,176206,1746694905101.094,-64,24,-96
1746694905139.969,176220,1746694905120.969,-67,39,-104
1746694905159.813,176210,1746694905140.844,-68,31,-111
1746694905179.688,176164,1746694905160.719,-76,30,-109
1746694905199.5,176133,1746694905180.625,-72,28,-108
1746694905219.406,176073,1746694905200.406,-72,28,-109
1746694905239.25,175994,1746694905220.25,-72,31,-104
1746694905259.094,175926,1746694905240.125,-79,33,-96
1746694905279.0,175879,1746694905260.0,-79,23,-109
1746694905298.844,175863,1746694905279.906,-80,28,-96
1746694905318.719,175822,1746694905299.719,-64,35,-109
1746694905338.563,175833,1746694905319.563,-68,25,-96
1746694905358.531,175848,1746694905339.469,-73,28,-109
1746694905378.312,175883,1746694905359.344,-81,32,-113
1746694905398.156,175927,1746694905379.188,-68,23,-96
1746694905418.0,175955,1746694905399.031,-61,32,-104
1746694905437.875,176012,1746694905418.906,-77,31,-104
1746694905457.75,176069,1746694905438.781,-71,23,-105
1746694905477.594,176115,1746694905458.594,-67,27,-99
1746694905497.438,176177,1746694905478.469,-84,28,-96
1746694905517.313,176202,1746694905498.375,-66,29,-96
1746694905537.156,176261,1746694905518.187,-72,27,-104
1746694905557.062,176317,1746694905538.031,-57,25,-103
1746694905576.906,176380,1746694905557.938,-77,32,-103
1746694905596.781,176415,1746694905577.812,-73,30,-104
1746694905616.656,176432,1746694905597.656,-71,31,-96
1746694905636.625,176473,1746694905617.531,-69,30,-109
1746694905656.375,176499,1746694905637.469,-64,28,-109
1746694905676.281,176522,1746694905657.281,-71,31,-114
1746694905696.156,176562,1746694905677.187,-65,31,-109
1746694905716.031,176591,1746694905697.063,-72,32,-109
1746694905735.875,176633,1746694905716.906,-70,31,-104
1746694905755.719,176653,1746694905736.812,-71,28,-96
1746694905775.594,176728,1746694905756.625,-81,43,-97
1746694905795.469,176773,1746694905776.469,-71,28,-112
1746694905815.313,176820,1746694905796.344,-68,30,-109
1746694905835.188,176897,1746694905816.219,-72,29,-101
1746694905855.062,176975,1746694905836.062,-79,30,-96
1746694905874.937,177061,1746694905855.937,-68,24,-93
1746694905894.781,177148,1746694905875.938,-80,31,-96
1746694905914.625,177174,1746694905895.688,-69,35,-96
1746694905934.5,177091,1746694905915.5,-71,33,-111
1746694905954.375,176968,1746694905935.375,-65,30,-96
1746694905974.281,176748,1746694905955.25,-69,31,-96
1746694905994.094,176517,1746694905975.188,-68,28,-96
1746694906014.0,176277,1746694905994.969,-84,28,-96
1746694906033.844,176087,1746694906014.875,-82,35,-96
1746694906053.688,175925,1746694906034.781,-49,28,-96
1746694906073.594,175789,1746694906054.594,-72,32,-98
1746694906093.437,175710,1746694906074.437,-68,35,-104
1746694906113.281,175655,1746694906094.344,-74,38,-96
1746694906133.156,175620,1746694906114.156,-69,28,-104
1746694906153.094,175631,1746694906134.063,-68,31,-109
1746694906172.906,175644,1746694906153.937,-78,23,-100
1746694906192.875,175651,1746694906173.812,-72,28,-96
1746694906212.625,175662,1746694906193.688,-65,35,-101
1746694906232.5,175678,1746694906213.531,-77,32,-105
1746694906252.4058,175638,1746694906233.406,-72,31,-96
1746694906272.25,175604,1746694906253.281,-73,27,-105
1746694906292.125,175548,1746694906273.156,-68,31,-104
1746694906311.969,175483,1746694906293.0,-68,31,-112
1746694906331.844,175439,1746694906312.875,-72,31,-112
1746694906351.687,175407,1746694906332.719,-64,28,-109
1746694906371.562,175374,1746694906352.594,-69,33,-96
1746694906391.438,175374,1746694906372.469,-61,30,-109
1746694906411.281,175380,1746694906392.313,-72,35,-112
1746694906431.156,175387,1746694906412.187,-75,31,-96
1746694906451.0,175433,1746694906432.062,-63,28,-96
1746694906470.875,175458,1746694906451.875,-79,27,-96
1746694906490.844,175508,1746694906471.719,-63,22,-100
1746694906510.594,175557,1746694906491.656,-79,15,-105
1746694906530.5,175589,1746694906511.5,-68,30,-109
1746694906550.344,175627,1746694906531.375,-68,28,-105
1746694906570.25,175675,1746694906551.25,-68,30,-113
1746694906590.094,175721,1746694906571.125,-77,31,-96
1746694906609.969,175759,1746694906591.0,-82,31,-104
1746694906629.844,175785,1746694906610.875,-77,28,-112
1746694906649.719,175793,1746694906630.719,-65,36,-109
1746694906669.562,175801,1746694906650.625,-72,28,-96
1746694906689.437,175837,1746694906670.5,-64,29,-103
1746694906709.313,175838,1746694906690.313,-63,30,-112
1746694906729.156,175843,1746694906710.219,-72,31,-96
1746694906749.031,175856,1746694906730.062,-77,32,-96
1746694906768.906,175863,1746694906749.937,-68,31,-96
1746694906788.781,175883,1746694906769.781,-63,25,-96
1746694906808.625,175907,1746694906789.656,-74,28,-104
1746694906828.469,175931,1746694906809.531,-64,31,-106
1746694906848.344,175996,1746694906829.375,-60,44,-112
1746694906868.219,176019,1746694906849.25,-79,32,-109
1746694906888.063,176092,1746694906869.094,-66,35,-96
1746694906907.938,176127,1746694906889.0,-79,40,-109
1746694906927.812,176200,1746694906908.844,-72,35,-111
1746694906947.656,176247,1746694906928.719,-69,31,-113
1746694906967.531,176320,1746694906948.531,-69,28,-108
1746694906987.375,176384,1746694906968.437,-76,35,-105
1746694907007.25,176457,1746694906988.281,-69,31,-105
1746694907027.125,176537,1746694907008.219,-68,35,-104
1746694907046.969,176628,1746694907028.0,-72,28,-96
1746694907066.844,176709,1746694907047.875,-71,31,-109
1746694907086.719,176815,1746694907067.719,-72,28,-111
1746694907106.594,176911,1746694907087.594,-64,27,-96
1746694907126.406,176995,1746694907107.5,-68,32,-96
1746694907146.281,177098,1746694907127.313,-74,28,-109
1746694907166.125,177214,1746694907147.156,-68,28,-96
1746694907186.0,177337,1746694907167.031,-73,25,-100
1746694907205.844,177442,1746694907186.906,-72,25,-100
1746694907225.719,177522,1746694907206.781,-75,28,-109
1746694907245.594,177596,1746694907226.562,-80,27,-104
1746694907265.469,177554,1746694907246.469,-80,31,-96
1746694907285.344,177444,1746694907266.344,-72,31,-109
1746694907305.188,177255,1746694907286.219,-72,24,-96
1746694907325.063,177004,1746694907306.062,-64,24,-96
1746694907344.937,176762,1746694907325.937,-79,27,-96
1746694907364.781,176512,1746694907345.813,-80,24,-106
1746694907384.656,176317,1746694907365.656,-68,31,-96
1746694907404.562,176169,1746694907385.531,-73,27,-109
1746694907424.406,176094,1746694907405.437,-75,31,-109
1746694907444.25,176005,1746694907425.25,-71,28,-104
1746694907464.094,175992,1746694907445.156,-69,25,-104
1746694907484.0,175997,1746694907465.0,-80,31,-96
1746694907503.844,175966,1746694907484.875,-74,24,-109
1746694907523.6868,175980,1746694907504.75,-76,31,-105
1746694907543.563,175971,1746694907524.594,-77,28,-96
1746694907563.438,175959,1746694907544.438,-72,22,-96
1746694907583.281,175957,1746694907564.312,-64,36,-96
1746694907603.125,175893,1746694907584.156,-80,28,-109
1746694907623.125,175819,1746694907604.031,-63,28,-106
1746694907642.875,175751,1746694907623.875,-65,32,-97
1746694907662.719,175675,1746694907643.75,-69,31,-96
1746694907682.531,175654,1746694907663.594,-68,27,-96
1746694907702.406,175610,1746694907683.469,-80,27,-104
1746694907722.313,175549,1746694907703.281,-68,24,-104
1746694907742.156,175561,1746694907723.187,-77,27,-96
1746694907762.0,175554,1746694907743.094,-68,35,-96
1746694907781.875,175570,1746694907762.938,-68,34,-114
1746694907801.719,175610,1746694907782.781,-72,29,-109
1746694907821.594,175623,1746694907802.594,-73,33,-109
1746694907841.469,175655,1746694907822.5,-76,30,-96
1746694907861.281,175696,1746694907842.344,-72,31,-104
1746694907881.156,175726,1746694907862.156,-64,32,-111
1746694907901.031,175744,1746694907882.031,-68,28,-96
1746694907920.844,175791,1746694907901.906,-44,24,-96
1746694907940.719,175820,1746694907921.75,-77,35,-98
1746694907960.594,175868,1746694907941.625,-80,28,-96
1746694907980.469,175897,1746694907961.469,-89,19,-96
1746694908000.313,175933,1746694907981.344,-80,28,-96
1746694908020.219,175943,1746694908001.25,-68,32,-96
1746694908040.062,175939,1746694908021.063,-66,32,-107
1746694908059.875,175975,1746694908040.938,-77,29,-111
1746694908079.75,176007,1746694908060.812,-63,23,-111
1746694908099.5942,176033,1746694908080.656,-72,28,-121
1746694908119.5,176050,1746694908100.5,-69,32,-111
1746694908139.406,176075,1746694908120.406,-69,24,-96
1746694908159.188,176103,1746694908140.344,-70,30,-96
1746694908179.187,176138,1746694908160.094,-72,24,-96
1746694908198.906,176198,1746694908180.063,-80,29,-96
1746694908218.75,176269,1746694908199.781,-76,30,-105
1746694908238.656,176346,1746694908219.688,-76,31,-113
1746694908258.531,176417,1746694908239.562,-69,32,-109
1746694908278.469,176481,1746694908259.375,-69,28,-104
1746694908298.219,176570,1746694908279.344,-82,32,-109
1746694908318.094,176641,1746694908299.094,-56,35,-109
1746694908337.938,176745,1746694908319.0,-74,30,-110
1746694908357.812,176836,1746694908338.812,-71,31,-112
1746694908377.625,176933,1746694908358.687,-75,44,-102
1746694908397.5,177012,1746694908378.563,-73,31,-109
1746694908417.375,177104,1746694908398.438,-71,28,-96
1746694908437.25,177109,1746694908418.25,-72,21,-104
1746694908457.094,177029,1746694908438.125,-66,25,-111
1746694908476.938,176883,1746694908458.0,-72,31,-111
1746694908496.844,176630,1746694908477.937,-80,31,-109
1746694908516.719,176360,1746694908497.719,-72,31,-96
1746694908536.531,176120,1746694908517.594,-67,31,-106
1746694908556.438,175910,1746694908537.438,-74,30,-104
1746694908576.344,175723,1746694908557.313,-68,30,-96
1746694908596.1558,175587,1746694908577.219,-68,35,-96
1746694908616.0,175492,1746694908597.031,-68,28,-109
1746694908635.875,175488,1746694908616.9382,-72,28,-96
1746694908655.75,175445,1746694908636.781,-64,30,-112
1746694908675.625,175458,1746694908656.594,-77,32,-106
1746694908695.437,175467,1746694908676.5,-78,28,-96
1746694908715.312,175484,1746694908696.375,-81,28,-96
1746694908735.188,175487,1746694908716.188,-80,28,-104
1746694908755.156,175509,1746694908736.063,-72,28,-93
1746694908774.906,175441,1746694908755.937,-76,15,-95
1746694908794.75,175330,1746694908775.812,-72,25,-96
1746694908814.656,175266,1746694908795.625,-76,25,-104
1746694908834.531,175200,1746694908815.625,-73,31,-96
1746694908854.344,175135,1746694908835.406,-81,28,-96
1746694908874.281,175072,1746694908855.25,-72,31,-104
1746694908894.063,175021,1746694908875.1882,-80,28,-96
1746694908913.938,175018,1746694908894.938,-65,32,-104
1746694908933.781,175007,1746694908914.812,-66,35,-110
1746694908953.625,175018,1746694908934.687,-78,32,-96
1746694908973.5,175027,1746694908954.531,-82,31,-96
1746694908993.406,175044,1746694908974.406,-63,33,-111
1746694909013.2192,175085,1746694908994.219,-73,28,-100
1746694909033.094,175120,1746694909014.125,-79,28,-96
1746694909052.937,175153,1746694909033.969,-64,32,-96
1746694909072.813,175200,1746694909053.813,-72,30,-109
1746694909092.656,175240,1746694909073.688,-79,24,-103
1746694909112.5,175275,1746694909093.5618,-66,34,-110
1746694909132.375,175292,1746694909113.375,-73,31,-109
1746694909152.219,175331,1746694909133.25,-66,28,-104
1746694909172.0632,175344,1746694909153.125,-69,33,-104
1746694909191.969,175350,1746694909172.969,-68,31,-109
1746694909211.812,175366,1746694909192.844,-72,28,-111
1746694909231.688,175362,1746694909212.813,-74,31,-96
1746694909251.531,175366,1746694909232.563,-76,24,-96
1746694909271.375,175339,1746694909252.375,-71,28,-100
1746694909291.25,175356,1746694909272.219,-68,28,-111
1746694909311.188,175387,1746694909292.125,-68,32,-109
1746694909330.969,175388,1746694909312.094,-68,33,-105
1746694909350.844,175440,1746694909331.875,-67,28,-96
1746694909370.719,175494,1746694909351.719,-64,28,-96
1746694909390.562,175516,1746694909371.594,-65,30,-109
1746694909410.406,175575,1746694909391.438,-80,31,-105
1746694909430.281,175637,1746694909411.344,-71,25,-96
1746694909450.125,175698,1746694909431.156,-72,30,-109
1746694909470.0,175760,1746694909451.031,-80,31,-96
1746694909489.844,175835,1746694909470.875,-65,31,-104
1746694909509.688,175624,1746694909490.719,-65,32,-113
1746694909529.594,174406,1746694909510.531,-58,30,-120
1746694909549.437,173886,1746694909530.469,-109,44,-112
1746694909569.281,173484,1746694909550.281,-65,-4,-80
1746694909589.156,173070,1746694909570.188,-79,-26,-144
1746694909609.0,172533,1746694909590.062,-80,64,-96
1746694909628.875,171947,1746694909609.937,-200,39,-61
1746694909648.75,171487,1746694909629.75,-116,14,-47
1746694909668.594,171080,1746694909649.625,24,56,-80
1746694909688.469,170648,1746694909669.4692,24,48,-110
1746694909708.312,170240,1746694909689.375,-45,33,-117
1746694909728.156,169917,1746694909709.344,-65,51,-112
1746694909748.063,169688,1746694909729.063,-66,52,-116
1746694909767.906,169766,1746694909748.938,-69,52,-125
1746694909787.75,172851,1746694909768.781,-65,8,-121
1746694909807.594,175026,1746694909788.625,-76,30,-48
1746694909827.469,175251,1746694909808.5,-98,-32,-223
1746694909847.344,175687,1746694909828.344,-33,-7,-157
1746694909867.188,176385,1746694909848.25,-100,46,-80
1746694909887.062,176848,1746694909868.094,-69,24,-72
1746694909906.906,177467,1746694909887.969,-57,22,-91
1746694909926.813,178097,1746694909907.813,-52,32,-109
1746694909946.625,178554,1746694909927.687,-77,36,-112
1746694909966.5,178670,1746694909947.531,-68,31,-125
1746694909986.344,178472,1746694909967.406,-71,28,-121
1746694910006.219,178232,1746694909987.219,-57,19,-112
1746694910026.094,178002,1746694910007.094,-57,22,-109
1746694910046.062,177857,1746694910027.0,-61,24,-109
1746694910065.812,177839,1746694910046.938,-63,25,-109
1746694910085.656,177879,1746694910066.688,-62,23,-112
1746694910105.531,177925,1746694910086.563,-72,28,-125
1746694910125.375,177940,1746694910106.469,-66,24,-112
1746694910145.25,178031,1746694910126.281,-53,25,-113
1746694910165.125,178146,1746694910146.156,-65,24,-112
1746694910184.969,178271,1746694910165.969,-61,33,-112
1746694910204.813,178330,1746694910185.906,-66,30,-109
1746694910224.687,178355,1746694910205.719,-64,24,-112
1746694910244.562,178397,1746694910225.563,-64,20,-109
1746694910264.406,178408,1746694910245.406,-58,23,-104
1746694910284.25,178453,1746694910265.312,-64,24,-112
1746694910304.156,178466,1746694910285.156,-73,24,-112
1746694910324.0,178480,1746694910305.031,-66,19,-109
1746694910343.813,178487,1746694910324.875,-64,19,-112
1746694910363.688,178556,1746694910344.719,-68,28,-109
1746694910383.531,178638,1746694910364.594,-64,27,-112
1746694910403.406,178726,1746694910384.375,-71,19,-112
1746694910423.25,178776,1746694910404.281,-71,31,-112
1746694910443.25,178803,1746694910424.156,-61,28,-107
1746694910463.0,178829,1746694910444.125,-63,24,-112
1746694910482.875,178844,1746694910463.906,-61,28,-116
1746694910502.719,178802,1746694910483.75,-65,28,-112
1746694910522.594,178746,1746694910503.594,-69,47,-104
1746694910542.469,178687,1746694910523.5,-72,25,-109
1746694910562.344,178629,1746694910543.344,-57,19,-111
1746694910582.187,178541,1746694910563.219,-61,22,-100
1746694910602.031,178450,1746694910583.094,-57,27,-109
1746694910621.906,178297,1746694910602.875,-69,22,-104
1746694910641.75,178100,1746694910622.781,-65,23,-121
1746694910661.656,177806,1746694910642.625,-61,23,-109
1746694910681.469,177476,1746694910662.5,-59,27,-113
1746694910701.344,177076,1746694910682.313,-58,28,-104
1746694910721.219,176703,1746694910702.219,-58,25,-109
1746694910741.062,176363,1746694910722.094,-61,23,-111
1746694910760.938,176064,1746694910741.969,-73,23,-112
1746694910780.906,175844,1746694910761.813,-73,24,-109
1746694910800.656,175701,1746694910781.812,-63,24,-106
1746694910820.5,175602,1746694910801.531,-57,23,-112
1746694910840.344,175572,1746694910821.406,-70,20,-110
1746694910860.219,175567,1746694910841.219,-66,24,-111
1746694910880.125,175564,1746694910861.094,-61,25,-112
1746694910899.969,175515,1746694910881.0,-71,25,-109
1746694910919.844,175456,1746694910900.906,-68,23,-113
1746694910939.719,175416,1746694910920.75,-52,19,-96
1746694910959.594,175349,1746694910940.594,-73,22,-111
1746694910979.437,175221,1746694910960.469,-61,20,-116
1746694910999.281,175071,1746694910980.344,-61,24,-111
1746694911019.156,174914,1746694911000.125,-61,27,-104
1746694911039.0,174744,1746694911020.031,-61,27,-112
1746694911058.844,174621,1746694911039.875,-64,19,-112
1746694911078.687,174527,1746694911059.75,-72,25,-109
1746694911098.563,174448,1746694911079.594,-50,22,-105
1746694911118.469,174370,1746694911099.438,-65,27,-109
1746694911138.25,174338,1746694911119.312,-73,23,-104
1746694911158.125,174321,1746694911139.156,-68,31,-112
1746694911178.063,174287,1746694911159.0,-57,28,-112
1746694911197.844,174284,1746694911178.938,-72,25,-112
1746694911217.688,174286,1746694911198.719,-61,22,-100
1746694911237.531,174320,1746694911218.594,-68,20,-112
1746694911257.406,174297,1746694911238.437,-65,35,-112
1746694911277.313,174275,1746694911258.313,-61,25,-110
1746694911297.156,174269,1746694911278.156,-64,30,-112
1746694911317.0,174254,1746694911298.062,-72,15,-105
1746694911336.875,174239,1746694911317.875,-69,25,-112
1746694911356.75,174205,1746694911337.781,-73,26,-112
1746694911376.594,174139,1746694911357.656,-58,28,-121
1746694911396.4692,174024,1746694911377.5,-64,19,-112
1746694911416.344,173908,1746694911397.344,-69,24,-112
1746694911436.188,173861,1746694911417.25,-60,30,-113
1746694911456.031,173841,1746694911437.094,-59,24,-109
1746694911475.906,173857,1746694911456.969,-77,24,-105
1746694911495.812,173856,1746694911476.781,-64,22,-112
1746694911515.625,173880,1746694911496.656,-69,24,-112
1746694911535.469,173893,1746694911516.5,-64,19,-104
1746694911555.344,173931,1746694911536.406,-68,17,-109
1746694911575.219,174012,1746694911556.25,-61,27,-112
1746694911595.062,174082,1746694911576.125,-64,28,-113
1746694911614.938,174165,1746694911595.969,-63,28,-104
1746694911634.875,174248,1746694911615.844,-64,25,-111
1746694911654.687,174322,1746694911635.687,-55,23,-114
1746694911674.531,174439,1746694911655.562,-69,28,-109
1746694911694.375,174520,1746694911675.438,-60,40,-105
1746694911714.25,174607,1746694911695.312,-58,24,-113
1746694911734.094,174713,1746694911715.094,-63,22,-110
1746694911753.969,174837,1746694911734.937,-61,24,-100
1746694911773.844,174949,1746694911754.875,-62,19,-109
1746694911793.719,175034,1746694911774.719,-69,27,-112
1746694911813.594,175082,1746694911794.594,-69,29,-112
1746694911833.437,175043,1746694911814.469,-63,24,-114
1746694911853.344,174901,1746694911834.375,-71,24,-109
1746694911873.188,174690,1746694911854.219,-72,24,-112
1746694911893.094,174393,1746694911874.094,-60,35,-109
1746694911912.937,174143,1746694911893.969,-56,22,-112
1746694911932.844,173907,1746694911913.844,-60,23,-112
1746694911952.719,173690,1746694911933.719,-71,24,-104
1746694911972.594,173549,1746694911953.594,-64,24,-112
1746694911992.4368,173415,1746694911973.469,-48,26,-112
1746694912012.344,173360,1746694911993.375,-57,27,-109
1746694912032.344,173353,1746694912013.2192,-68,25,-109
1746694912052.062,173377,1746694912033.094,-57,32,-105
1746694912071.906,173378,1746694912052.969,-63,24,-109
1746694912091.781,173380,1746694912072.844,-66,17,-111
1746694912111.625,173386,1746694912092.656,-61,20,-112
1746694912131.5,173387,1746694912112.5,-58,24,-112
1746694912151.344,173398,1746694912132.406,-58,26,-112
1746694912171.219,173302,1746694912152.313,-69,24,-109
1746694912191.094,173194,1746694912172.094,-60,24,-109
1746694912210.906,173040,1746694912191.969,-64,19,-109
1746694912230.781,172886,1746694912211.812,-64,23,-109
1746694912250.656,172741,1746694912231.688,-64,24,-111
1746694912270.5,172641,1746694912251.531,-57,23,-112
1746694912290.344,172618,1746694912271.375,-66,24,-109
1746694912310.219,172619,1746694912291.25,-68,23,-112
1746694912330.062,172619,1746694912311.156,-57,27,-121
1746694912349.938,172652,1746694912330.938,-71,25,-113
1746694912369.781,172678,1746694912350.813,-58,20,-109
1746694912389.625,172728,1746694912370.687,-73,35,-113
1746694912409.5,172770,1746694912390.531,-61,22,-103
1746694912429.344,172849,1746694912410.375,-64,24,-96
1746694912449.219,172919,1746694912430.219,-65,16,-113
1746694912469.063,172950,1746694912450.063,-62,24,-104
1746694912488.937,172952,1746694912469.969,-58,24,-112
1746694912508.812,172990,1746694912489.813,-72,25,-112
1746694912528.625,173028,1746694912509.688,-61,24,-112
1746694912548.5,173040,1746694912529.531,-64,24,-112
1746694912568.3442,173043,1746694912549.437,-61,22,-109
1746694912588.219,173035,1746694912569.25,-72,19,-108
1746694912608.063,173020,1746694912589.125,-61,21,-96
1746694912627.906,173041,1746694912608.969,-58,23,-96
1746694912647.781,173072,1746694912628.844,-72,23,-106
1746694912667.625,173106,1746694912648.813,-60,27,-109
1746694912687.5,173126,1746694912668.5,-69,28,-104
1746694912707.313,173116,1746694912688.375,-60,22,-112
1746694912727.219,173165,1746694912708.25,-65,30,-111
1746694912747.094,173220,1746694912728.094,-69,19,-109
1746694912766.969,173282,1746694912747.969,-61,24,-112
1746694912786.813,173347,1746694912767.844,-60,19,-104
1746694912806.688,173414,1746694912787.719,-72,23,-109
1746694912826.562,173523,1746694912807.531,-63,27,-104
1746694912846.375,173597,1746694912827.437,-60,24,-106
1746694912866.281,173676,1746694912847.281,-68,24,-111
1746694912886.188,173798,1746694912867.188,-69,27,-98
1746694912906.094,173902,1746694912887.031,-61,24,-109
1746694912925.906,174026,1746694912906.969,-64,23,-110
1746694912945.75,174129,1746694912926.875,-63,25,-113
1746694912965.656,174263,1746694912946.656,-64,19,-112
1746694912985.562,174325,1746694912966.531,-61,22,-104
1746694913005.406,174335,1746694912986.469,-67,22,-122
1746694913025.281,174230,1746694913006.313,-64,35,-111
1746694913045.125,174095,1746694913026.156,-64,22,-109
1746694913065.0,173891,1746694913046.031,-65,28,-96
1746694913084.844,173668,1746694913065.875,-60,22,-106
1746694913104.719,173446,1746694913085.75,-58,27,-112
1746694913124.625,173270,1746694913105.594,-65,35,-112
1746694913144.469,173115,1746694913125.5,-63,28,-114
1746694913164.344,173014,1746694913145.375,-61,24,-113
1746694913184.188,172972,1746694913165.219,-67,19,-95
1746694913204.063,172987,1746694913185.125,-64,22,-112
1746694913223.937,173026,1746694913204.937,-58,28,-112
1746694913243.781,173025,1746694913224.812,-72,28,-109
1746694913263.656,173060,1746694913244.688,-68,24,-109
1746694913283.5,173083,1746694913264.531,-64,25,-112
1746694913303.375,173111,1746694913284.406,-77,24,-109
1746694913323.25,173118,1746694913304.281,-74,23,-109
1746694913343.094,173093,1746694913324.156,-60,25,-109
1746694913362.969,173050,1746694913343.969,-61,15,-112
1746694913382.812,173000,1746694913363.844,-63,19,-111
1746694913402.656,172958,1746694913383.719,-77,24,-111
1746694913422.563,172913,1746694913403.563,-69,19,-112
1746694913442.406,172899,1746694913423.438,-58,21,-112
1746694913462.25,172892,1746694913443.281,-85,19,-109
1746694913482.125,172869,1746694913463.156,-72,23,-111
1746694913502.0,172867,1746694913483.0,-61,24,-112
1746694913521.875,172897,1746694913502.875,-64,19,-112
1746694913541.719,172944,1746694913522.75,-64,23,-109
1746694913561.594,172949,1746694913542.625,-61,20,-109
1746694913581.437,173009,1746694913562.5,-68,22,-125
1746694913601.3132,173035,1746694913582.313,-67,21,-112
1746694913621.094,173081,1746694913602.188,-66,25,-112
1746694913640.969,173121,1746694913622.031,-68,24,-96
1746694913660.844,173171,1746694913641.875,-72,24,-106
1746694913680.719,173222,1746694913661.719,-61,24,-112
1746694913700.563,173268,1746694913681.594,-57,24,-111
1746694913720.438,173324,1746694913701.469,-69,23,-109
1746694913740.312,173349,1746694913721.344,-64,23,-104
1746694913760.187,173346,1746694913741.188,-63,35,-112
1746694913780.063,173357,1746694913761.063,-61,25,-104
1746694913799.906,173402,1746694913780.969,-68,28,-109
1746694913819.75,173413,1746694913800.781,-69,24,-100
1746694913839.625,173456,1746694913820.656,-64,24,-112
1746694913859.469,173464,1746694913840.5,-57,39,-112
1746694913879.313,173471,1746694913860.375,-64,28,-111
1746694913899.281,173532,1746694913880.219,-64,24,-113
1746694913919.062,173580,1746694913900.062,-60,22,-105
1746694913938.906,173687,1746694913920.0,-61,24,-109
1746694913958.75,173744,1746694913939.813,-71,22,-112
1746694913978.594,173824,1746694913959.625,-61,28,-109
1746694913998.5,173902,1746694913979.469,-64,27,-104
1746694914018.344,173972,1746694913999.406,-73,31,-109
1746694914038.188,174084,1746694914019.25,-61,26,-109
1746694914058.063,174153,1746694914039.062,-68,24,-109
1746694914077.906,174257,1746694914058.969,-60,20,-109
1746694914097.75,174376,1746694914078.813,-72,27,-111
1746694914117.625,174484,1746694914098.719,-58,24,-107
1746694914137.5,174575,1746694914118.531,-57,28,-116
1746694914157.375,174634,1746694914138.375,-60,12,-109
1746694914177.187,174605,1746694914158.25,-65,24,-111
1746694914197.063,174539,1746694914178.125,-72,24,-112
1746694914216.906,174385,1746694914197.938,-63,24,-109
1746694914236.7808,174182,1746694914217.781,-60,24,-112
1746694914256.687,173983,1746694914237.687,-57,28,-109
1746694914276.531,173807,1746694914257.5632,-64,25,-104
1746694914296.406,173673,1746694914277.438,-74,28,-109
1746694914316.219,173552,1746694914297.281,-64,24,-104
1746694914336.094,173472,1746694914317.062,-63,24,-104
1746694914355.906,173456,1746694914337.031,-61,28,-96
1746694914375.781,173454,1746694914356.813,-64,31,-112
1746694914395.625,173453,1746694914376.688,-57,27,-106
1746694914415.469,173459,1746694914396.5,-60,24,-109
1746694914435.344,173474,1746694914416.406,-71,25,-111
1746694914455.219,173519,1746694914436.25,-57,20,-109
1746694914475.063,173508,1746694914456.094,-65,24,-113
1746694914494.875,173513,1746694914475.937,-71,24,-112
1746694914514.75,173445,1746694914495.781,-57,19,-112
1746694914534.625,173400,1746694914515.656,-81,24,-106
1746694914554.5,173359,1746694914535.469,-64,23,-109
1746694914574.344,173328,1746694914555.375,-65,20,-112
1746694914594.187,173300,1746694914575.219,-72,23,-112
1746694914614.062,173245,1746694914595.062,-61,28,-109
1746694914633.906,173249,1746694914614.938,-68,19,-109
1746694914653.781,173237,1746694914634.7808,-57,24,-113
1746694914673.656,173239,1746694914654.687,-58,23,-121
1746694914693.5,173282,1746694914674.531,-57,20,-112
1746694914713.375,173323,1746694914694.375,-72,24,-112
1746694914733.219,173358,1746694914714.219,-66,24,-109
1746694914753.031,173376,1746694914734.094,-57,20,-111
1746694914772.937,173432,1746694914753.937,-74,26,-112
1746694914792.781,173492,1746694914773.813,-68,24,-112
1746694914812.625,173557,1746694914793.688,-68,27,-112
1746694914832.5,173631,1746694914813.531,-63,22,-112
1746694914852.406,173676,1746694914833.375,-61,20,-109
1746694914872.219,173689,1746694914853.25,-65,24,-111
1746694914892.063,173723,1746694914873.094,-57,22,-100
1746694914911.906,173755,1746694914892.969,-65,25,-104
1746694914931.781,173786,1746694914912.812,-77,19,-108
1746694914951.75,173830,1746694914932.687,-66,22,-96
1746694914971.5,173855,1746694914952.563,-68,27,-98
1746694914991.375,173884,1746694914972.438,-56,19,-89
1746694915011.25,173918,1746694914992.281,-57,23,-106
1746694915031.094,173941,1746694915012.094,-64,25,-114
1746694915050.969,173992,1746694915031.969,-65,24,-111
1746694915070.844,174048,1746694915051.875,-61,25,-109
1746694915090.688,174088,1746694915071.719,-65,24,-112
1746694915110.594,174154,1746694915091.562,-76,27,-112
1746694915130.438,174216,1746694915111.469,-73,24,-112
1746694915150.281,174283,1746694915131.344,-71,28,-109
1746694915170.156,174357,1746694915151.156,-73,31,-109
1746694915190.0,174443,1746694915171.031,-66,24,-111
1746694915209.812,174521,1746694915190.875,-61,20,-96
1746694915229.688,174628,1746694915210.719,-68,17,-109
1746694915249.563,174736,1746694915230.563,-62,24,-109
1746694915269.406,174824,1746694915250.437,-64,33,-111
1746694915289.281,174886,1746694915270.312,-72,26,-113
1746694915309.219,174840,1746694915290.188,-57,23,-121
1746694915329.0,174761,1746694915310.0,-63,15,-121
1746694915348.875,174621,1746694915329.875,-72,24,-111
1746694915368.687,174451,1746694915349.75,-60,27,-109
1746694915388.562,174253,1746694915369.594,-61,24,-104
1746694915408.406,174059,1746694915389.438,-68,24,-106
1746694915428.281,173903,1746694915409.281,-62,27,-109
1746694915448.125,173794,1746694915429.187,-68,24,-112
1746694915467.969,173721,1746694915449.031,-71,24,-112
1746694915487.844,173723,1746694915468.844,-55,32,-109
1746694915507.75,173717,1746694915488.719,-73,30,-109
1746694915527.562,173741,1746694915508.656,-72,26,-105
1746694915547.437,173757,1746694915528.5,-70,30,-108
1746694915567.313,173805,1746694915548.344,-58,38,-96
1746694915587.188,173858,1746694915568.188,-60,24,-111
1746694915607.031,173913,1746694915588.031,-41,24,-112
1746694915626.875,173946,1746694915607.937,-61,24,-104
1746694915646.75,173912,1746694915627.75,-67,28,-112
1746694915666.625,173836,1746694915647.625,-65,53,-112
1746694915686.469,173823,1746694915667.531,-61,24,-111
1746694915706.406,173783,1746694915687.375,-69,19,-108
1746694915726.187,173773,1746694915707.187,-61,15,-80
1746694915746.063,173786,1746694915727.063,-61,24,-109
1746694915765.875,173769,1746694915746.938,-68,27,-111
1746694915785.75,173782,1746694915766.812,-52,25,-117
1746694915805.625,173807,1746694915786.594,-61,24,-104
1746694915825.531,173802,1746694915806.469,-57,27,-112
1746694915845.375,173838,1746694915826.469,-72,28,-109
1746694915865.25,173890,1746694915846.281,-63,27,-114
1746694915885.094,173928,1746694915866.125,-60,20,-112
1746694915904.938,173999,1746694915886.0,-72,25,-116
1746694915924.813,174041,1746694915905.844,-61,26,-112
1746694915944.656,174065,1746694915925.719,-62,25,-96
1746694915964.531,174087,1746694915945.531,-64,16,-96
1746694915984.375,174126,1746694915965.406,-71,24,-104
1746694916004.25,174162,1746694915985.281,-64,38,-114
1746694916024.125,174154,1746694916005.156,-64,24,-121
1746694916044.125,174163,1746694916025.0,-68,28,-112
1746694916063.844,174175,1746694916044.875,-68,32,-109
1746694916083.688,174157,1746694916064.75,-63,20,-111
1746694916103.563,174158,1746694916084.594,-68,27,-121
1746694916123.406,174137,1746694916104.437,-63,24,-112
1746694916143.25,174099,1746694916124.281,-60,28,-111
1746694916163.094,174051,1746694916144.156,-73,23,-112
1746694916182.938,173973,1746694916164.062,-63,28,-113
1746694916202.844,173902,1746694916183.844,-72,28,-105
1746694916222.656,173843,1746694916203.719,-77,23,-112
1746694916242.531,173833,1746694916223.563,-65,22,-111
1746694916262.438,173896,1746694916243.438,-61,22,-112
1746694916282.25,173984,1746694916263.312,-60,27,-114
1746694916302.094,174083,1746694916283.125,-60,24,-112
1746694916321.969,174149,1746694916303.0,-66,24,-104
1746694916341.844,174193,1746694916322.875,-65,17,-105
1746694916361.719,174202,1746694916342.719,-71,24,-106
1746694916381.562,174148,1746694916362.594,-63,28,-104
1746694916401.437,174121,1746694916382.469,-81,15,-109
1746694916421.281,174047,1746694916402.344,-61,24,-109
1746694916441.281,174021,1746694916422.156,-61,24,-104
1746694916461.031,173973,1746694916442.031,-61,15,-109
1746694916480.906,173928,1746694916461.906,-68,23,-112
1746694916500.719,173852,1746694916481.781,-63,19,-111
1746694916520.625,173702,1746694916501.625,-73,24,-121
1746694916540.469,173506,1746694916521.5,-65,23,-112
1746694916560.406,173239,1746694916541.375,-72,24,-109
1746694916580.188,172973,1746694916561.281,-64,30,-113
1746694916600.063,172709,1746694916581.094,-63,28,-121
1746694916619.875,172492,1746694916600.875,-61,31,-105
1746694916639.75,172362,1746694916620.812,-69,27,-112
1746694916659.594,172251,1746694916640.625,-64,22,-109
1746694916679.5,172182,1746694916660.469,-72,17,-109
1746694916699.313,172142,1746694916680.344,-61,19,-100
1746694916719.156,172146,1746694916700.219,-72,22,-109
1746694916739.031,172122,1746694916720.031,-49,32,-113
1746694916758.875,172111,1746694916739.906,-61,30,-112
1746694916778.688,172068,1746694916759.75,-74,28,-111
1746694916798.563,172026,1746694916779.625,-60,15,-109
1746694916818.437,172011,1746694916799.469,-65,26,-104
1746694916838.312,171976,1746694916819.281,-61,22,-100
1746694916858.125,171956,1746694916839.188,-61,23,-109
1746694916878.0,171898,1746694916859.062,-66,24,-109
1746694916897.844,171803,1746694916878.906,-69,23,-96
1746694916917.781,171719,1746694916898.75,-61,23,-105
1746694916937.625,171673,1746694916918.656,-61,25,-104
1746694916957.5,171632,1746694916938.531,-73,17,-112
1746694916977.375,171595,1746694916958.375,-72,20,-96
1746694916997.313,171604,1746694916978.219,-60,24,-96
1746694917017.063,171607,1746694916998.188,-70,25,-111
1746694917036.938,171632,1746694917018.0,-64,24,-112
1746694917056.812,171712,1746694917037.844,-63,28,-112
1746694917076.687,171732,1746694917057.719,-77,24,-109
1746694917096.531,171753,1746694917077.563,-69,30,-110
1746694917116.375,171765,1746694917097.438,-70,28,-112
1746694917136.25,171754,1746694917117.25,-72,36,-111
1746694917156.094,171769,1746694917137.125,-73,22,-112
1746694917175.937,171771,1746694917156.969,-60,25,-111
1746694917195.813,171785,1746694917176.875,-63,24,-121
1746694917215.688,171800,1746694917196.719,-71,25,-96
1746694917235.562,171838,1746694917216.562,-66,27,-105
1746694917255.406,171837,1746694917236.438,-62,24,-112
1746694917275.281,171805,1746694917256.313,-67,23,-112
1746694917295.125,171774,1746694917276.125,-64,25,-109
1746694917315.0,171711,1746694917296.094,-61,27,-112
1746694917334.844,171640,1746694917315.875,-65,28,-112
1746694917354.688,171559,1746694917335.719,-57,24,-114
1746694917374.531,171543,1746694917355.531,-60,31,-104
1746694917394.375,171512,1746694917375.406,-68,23,-112
1746694917414.219,171508,1746694917395.281,-66,22,-112
1746694917434.125,171512,1746694917415.125,-61,24,-100
1746694917454.094,171541,1746694917435.0,-63,25,-112
1746694917473.844,171582,1746694917454.875,-81,29,-106
1746694917493.687,171628,1746694917474.719,-60,20,-96
1746694917513.562,171636,1746694917494.594,-66,23,-109
1746694917533.406,171619,1746694917514.469,-63,19,-103
1746694917553.313,171592,1746694917534.344,-73,20,-109
1746694917573.125,171607,1746694917554.187,-72,24,-96
1746694917593.031,171592,1746694917574.031,-60,23,-119
1746694917612.906,171593,1746694917593.844,-61,28,-104
1746694917632.781,171585,1746694917613.781,-61,38,-129
1746694917652.625,171494,1746694917633.656,-72,23,-112
1746694917672.469,171315,1746694917653.5,-65,24,-104
1746694917692.344,171102,1746694917673.375,-63,24,-109
1746694917712.219,170827,1746694917693.219,-65,22,-109
1746694917732.187,170561,1746694917713.062,-64,25,-100
1746694917751.937,170331,1746694917733.063,-72,25,-109
1746694917771.813,170159,1746694917752.813,-66,23,-112
1746694917791.656,170013,1746694917772.688,-57,27,-111
1746694917811.5,169899,1746694917792.562,-65,25,-110
1746694917831.375,169822,1746694917812.406,-64,27,-113
1746694917851.281,169797,1746694917832.219,-62,25,-112
1746694917871.094,169812,1746694917852.125,-60,23,-116
1746694917890.969,169826,1746694917871.969,-57,16,-112
1746694917910.812,169813,1746694917891.844,-56,20,-112
1746694917930.687,169820,1746694917911.688,-64,22,-121
1746694917950.531,169836,1746694917931.594,-66,24,-108
1746694917970.375,169829,1746694917951.437,-77,24,-112
1746694917990.25,169795,1746694917971.281,-62,19,-112
1746694918010.125,169754,1746694917991.125,-56,24,-112
1746694918029.938,169705,1746694918011.031,-69,25,-105
1746694918049.813,169699,1746694918030.844,-65,28,-109
1746694918069.719,169679,1746694918050.75,-79,25,-108
1746694918089.562,169706,1746694918070.594,-57,25,-109
1746694918109.406,169743,1746694918090.438,-64,30,-112
1746694918129.281,169779,1746694918110.313,-64,19,-112
1746694918149.156,169829,1746694918130.312,-53,24,-107
1746694918169.062,169852,1746694918150.062,-72,23,-100
1746694918188.875,169865,1746694918169.969,-77,24,-109
1746694918208.75,169901,1746694918189.813,-49,28,-112
1746694918228.687,169946,1746694918209.625,-71,20,-112
1746694918248.5,170016,1746694918229.562,-62,23,-109
1746694918268.344,170054,1746694918249.375,-67,25,-115
1746694918288.219,170122,1746694918269.25,-69,19,-112
1746694918308.063,170185,1746694918289.062,-65,19,-112
1746694918327.969,170249,1746694918308.969,-61,28,-109
1746694918347.781,170315,1746694918328.844,-63,20,-112
1746694918367.656,170395,1746694918348.719,-60,24,-114
1746694918387.531,170460,1746694918368.562,-60,30,-112
1746694918407.406,170527,1746694918388.437,-61,27,-112
1746694918427.219,170603,1746694918408.313,-64,24,-113
1746694918447.125,170671,1746694918428.125,-65,24,-112
1746694918467.062,170752,1746694918448.0,-61,22,-111
1746694918486.875,170871,1746694918467.937,-64,23,-109
1746694918506.687,170946,1746694918487.75,-73,19,-112
1746694918526.563,171028,1746694918507.625,-63,19,-112
1746694918546.438,171110,1746694918527.438,-71,31,-112
1746694918566.344,171172,1746694918547.312,-64,27,-106
1746694918586.156,171229,1746694918567.219,-66,27,-112
1746694918606.063,171293,1746694918587.094,-64,23,-103
1746694918626.0,171389,1746694918606.938,-71,24,-96
1746694918645.812,171486,1746694918626.875,-64,28,-105
1746694918665.656,171662,1746694918646.687,-61,15,-74
1746694918685.531,171835,1746694918666.563,-68,16,-104
1746694918705.406,172056,1746694918686.438,-64,27,-112
1746694918725.25,172270,1746694918706.281,-64,24,-125
1746694918745.125,172475,1746694918726.156,-69,25,-112
1746694918765.0,172658,1746694918746.063,-69,24,-112
1746694918784.875,172731,1746694918765.875,-62,20,-112
1746694918804.719,172790,1746694918785.75,-61,23,-112
1746694918824.562,172763,1746694918805.656,-64,27,-109
1746694918844.469,172675,1746694918825.5,-77,24,-112
1746694918864.313,172555,1746694918845.344,-60,28,-112
1746694918884.187,172460,1746694918865.187,-64,28,-111
1746694918904.062,172422,1746694918885.094,-68,15,-109
1746694918923.969,172379,1746694918904.938,-72,26,-109
1746694918943.813,172362,1746694918924.844,-73,25,-111
1746694918963.656,172389,1746694918944.687,-60,27,-100
1746694918983.562,172411,1746694918964.562,-56,31,-111
1746694919003.438,172469,1746694918984.438,-64,30,-109
1746694919023.281,172501,1746694919004.313,-72,24,-112
1746694919043.125,172523,1746694919024.187,-63,23,-109
1746694919063.0,172531,1746694919044.062,-61,16,-129
1746694919082.875,172523,1746694919063.875,-61,28,-109
1746694919102.75,172517,1746694919083.75,-61,24,-112
1746694919122.5942,172496,1746694919103.625,-61,28,-112
1746694919142.5,172450,1746694919123.5,-72,25,-105
1746694919162.438,172464,1746694919143.375,-68,30,-109
1746694919182.281,172452,1746694919163.313,-68,28,-111
1746694919202.125,172443,1746694919183.125,-63,22,-112
1746694919222.0,172460,1746694919203.031,-60,30,-109
1746694919241.875,172504,1746694919222.875,-72,22,-104
1746694919261.75,172569,1746694919242.75,-76,24,-109
1746694919281.594,172664,1746694919262.656,-50,22,-109
1746694919301.469,172724,1746694919282.5,-64,19,-109
1746694919321.344,172796,1746694919302.344,-71,24,-109
1746694919341.156,172869,1746694919322.219,-64,29,-112
1746694919361.063,172934,1746694919342.062,-62,22,-96
1746694919381.0,173003,1746694919361.969,-76,22,-96
1746694919400.75,173088,1746694919381.781,-68,23,-109
1746694919420.594,173162,1746694919401.656,-61,24,-112
1746694919440.469,173237,1746694919421.5,-68,23,-112
1746694919460.344,173354,1746694919441.406,-63,24,-112
1746694919480.219,173434,1746694919461.219,-56,27,-104
1746694919500.063,173482,1746694919481.094,-53,25,-114
1746694919519.906,173541,1746694919500.969,-64,24,-112
1746694919539.781,173615,1746694919520.812,-64,25,-96
1746694919559.625,173672,1746694919540.687,-63,24,-106
1746694919579.5,173714,1746694919560.469,-47,17,-104
1746694919599.375,173801,1746694919580.375,-60,22,-112
1746694919619.25,174124,1746694919600.25,-68,28,-114
1746694919639.125,173402,1746694919620.125,-85,15,-141
1746694919659.0,168450,1746694919640.0,-201,-52,-191
1746694919678.844,197507,1746694919659.906,-200,-60,-366
1746694919698.688,203741,1746694919679.719,484,-168,174
1746694919718.5618,198935,1746694919699.594,-74,140,627
1746694919738.406,198733,1746694919719.469,-865,76,145
1746694919758.281,198898,1746694919739.313,-840,-63,-48
1746694919778.125,200208,1746694919759.125,-114,28,232
1746694919798.0,200888,1746694919779.0,384,183,368
1746694919817.844,198976,1746694919798.906,246,237,259
1746694919837.688,197597,1746694919818.75,-129,172,-15
1746694919857.563,198072,1746694919838.563,-432,95,-105
1746694919877.531,200399,1746694919858.469,-279,99,7
1746694919897.281,201658,1746694919878.344,167,161,-153
1746694919917.156,201741,1746694919898.1882,348,48,-47
1746694919937.031,198758,1746694919918.031,216,96,144
1746694919956.875,196988,1746694919937.906,-127,147,192
1746694919976.719,197060,1746694919957.75,-637,83,-13
1746694919996.594,198282,1746694919977.625,-519,24,-73
1746694920016.438,199214,1746694919997.469,-64,48,-48
1746694920036.344,200739,1746694920017.344,167,48,7
1746694920056.187,200439,1746694920037.219,118,7,-9
1746694920076.031,201113,1746694920057.062,-63,16,-48
1746694920095.875,201123,1746694920076.906,-255,-15,-32
