Local: ,2025-05-08 00:00:00+02:00,tz_sec ,7200
Linux Epoch (ms):,1746655200000.0
PPG Timestamp,PPG,ADXL Timestamp,X,Y,Z
1746694284382.688,174666,1746694284363.688,-17,8,-133
1746694284422.375,174887,1746694284403.437,-16,14,-143
1746694284442.25,174957,1746694284423.313,-25,12,-128
1746694284462.094,174975,1746694284443.156,-23,8,-130
1746694284481.9692,174914,1746694284463.031,-13,11,-130
1746694284501.812,174820,1746694284482.875,-16,12,-133
1746694284521.687,174631,1746694284502.719,-18,12,-137
1746694284541.594,174447,1746694284522.563,-17,12,-137
1746694284561.438,174262,1746694284542.469,-15,16,-151
1746694284581.281,174102,1746694284562.344,-16,14,-138
1746694284601.187,174034,1746694284582.187,-25,12,-141
1746694284621.031,173988,1746694284602.063,-25,14,-128
1746694284640.906,173972,1746694284621.906,-25,13,-136
1746694284660.75,174004,1746694284641.812,-13,15,-137
1746694284680.625,173971,1746694284661.656,-18,8,-137
1746694284700.5,173959,1746694284681.531,-16,16,-141
1746694284720.344,173946,1746694284701.406,-22,12,-141
1746694284740.2192,173944,1746694284721.25,-7,9,-137
1746694284760.094,173940,1746694284741.125,-15,15,-133
1746694284779.938,173908,1746694284760.969,-24,12,-141
1746694284799.813,173836,1746694284780.844,-17,18,-130
1746694284819.719,173774,1746694284800.719,-15,15,-135
1746694284839.531,173729,1746694284820.5618,-23,12,-135
1746694284859.375,173666,1746694284840.438,-10,13,-132
1746694284879.25,173601,1746694284860.281,-25,14,-125
1746694284899.094,173600,1746694284880.187,-21,31,-137
1746694284919.0,173637,1746694284900.0,-18,8,-137
1746694284938.812,173696,1746694284919.844,-24,7,-136
1746694284958.688,173798,1746694284939.75,-21,15,-133
1746694284978.563,173893,1746694284959.625,-24,14,-137
1746694284998.437,173985,1746694284979.437,-13,4,-141
1746694285018.281,174057,1746694284999.344,-20,15,-141
1746694285038.156,174118,1746694285019.188,-18,14,-143
1746694285058.031,174159,1746694285039.062,-16,16,-135
1746694285077.906,174250,1746694285058.937,-16,15,-133
1746694285097.75,174308,1746694285078.813,-18,15,-141
1746694285117.625,174329,1746694285098.688,-18,10,-137
1746694285137.5,174369,1746694285118.531,-24,12,-137
1746694285157.5,174400,1746694285138.375,-16,7,-142
1746694285177.219,174465,1746694285158.375,-23,10,-145
1746694285197.094,174556,1746694285178.125,-20,7,-129
1746694285216.969,174608,1746694285197.969,-13,15,-135
1746694285236.812,174657,1746694285217.875,-20,14,-137
1746694285256.656,174705,1746694285237.687,-23,16,-132
1746694285276.563,174768,1746694285257.5632,-22,14,-144
1746694285296.406,174880,1746694285277.438,-32,15,-136
1746694285316.281,174966,1746694285297.281,-16,15,-130
1746694285336.156,175061,1746694285317.187,-25,15,-137
1746694285356.031,175173,1746694285337.094,-25,7,-131
1746694285375.906,175277,1746694285356.906,-13,14,-137
1746694285395.781,175366,1746694285376.812,-20,9,-125
1746694285415.594,175495,1746694285396.656,-24,15,-128
1746694285435.5,175607,1746694285416.531,-13,11,-136
1746694285455.344,175780,1746694285436.406,-29,14,-137
1746694285475.25,175915,1746694285456.25,-26,12,-133
1746694285495.062,176041,1746694285476.125,-20,9,-133
1746694285514.969,176114,1746694285496.0,-17,9,-137
1746694285534.844,176161,1746694285515.844,-20,16,-137
1746694285554.688,176147,1746694285535.719,-17,3,-133
1746694285574.531,176125,1746694285555.594,-15,6,-137
1746694285594.406,176044,1746694285575.438,-13,6,-125
1746694285614.281,175893,1746694285595.25,-10,14,-136
1746694285634.094,175748,1746694285615.156,-16,20,-141
1746694285654.0,175597,1746694285635.031,-16,18,-143
1746694285673.875,175514,1746694285654.906,-2,15,-136
1746694285693.75,175459,1746694285674.781,-25,3,-132
1746694285713.594,175450,1746694285694.625,-25,15,-137
1746694285733.469,175486,1746694285714.531,-16,15,-135
1746694285753.344,175537,1746694285734.375,-20,16,-128
1746694285773.219,175549,1746694285754.219,-20,16,-141
1746694285793.063,175575,1746694285774.125,-15,15,-137
1746694285812.906,175614,1746694285793.969,-19,9,-135
1746694285832.781,175650,1746694285813.781,-25,8,-136
1746694285852.656,175676,1746694285833.688,-24,12,-141
1746694285872.469,175659,1746694285853.5308,-15,15,-133
1746694285892.375,175617,1746694285873.437,-20,15,-128
1746694285912.219,175588,1746694285893.25,-20,15,-130
1746694285932.094,175531,1746694285913.125,-25,24,-137
1746694285952.063,175458,1746694285933.0,-25,14,-134
1746694285971.781,175384,1746694285952.969,-16,12,-137
1746694285991.687,175354,1746694285972.687,-20,17,-132
1746694286011.563,175333,1746694285992.563,-17,15,-137
1746694286031.375,175332,1746694286012.438,-21,31,-137
1746694286051.25,175388,1746694286032.281,-21,12,-144
1746694286071.125,175434,1746694286052.125,-13,12,-141
1746694286090.969,175450,1746694286072.0,-13,5,-130
1746694286110.813,175449,1746694286091.844,-23,12,-141
1746694286130.656,175445,1746694286111.75,-15,15,-137
1746694286150.531,175410,1746694286131.531,-18,7,-137
1746694286170.531,175413,1746694286151.437,-16,11,-130
1746694286190.281,175402,1746694286171.25,-16,9,-136
1746694286210.094,175416,1746694286191.219,-14,14,-137
1746694286229.969,175396,1746694286211.0,-13,12,-137
1746694286249.844,175416,1746694286230.875,-16,14,-136
1746694286269.687,175469,1746694286250.75,-24,12,-133
1746694286289.563,175539,1746694286270.594,-23,18,-133
1746694286309.406,175537,1746694286290.469,-13,11,-137
1746694286329.281,175578,1746694286310.312,-25,12,-137
1746694286349.125,175623,1746694286330.156,-15,17,-133
1746694286369.0,175712,1746694286350.063,-32,15,-137
1746694286388.875,175771,1746694286369.875,-28,15,-133
1746694286408.844,175865,1746694286389.75,-16,16,-137
1746694286428.562,175965,1746694286409.625,-22,3,-141
1746694286448.469,176089,1746694286429.5,-25,11,-137
1746694286468.344,176146,1746694286449.344,-21,12,-137
1746694286488.219,176197,1746694286469.219,-17,12,-128
1746694286508.031,176305,1746694286489.062,-15,15,-136
1746694286527.906,176388,1746694286508.938,-16,15,-138
1746694286547.781,176502,1746694286528.813,-23,12,-138
1746694286567.625,176598,1746694286548.656,-25,15,-133
1746694286587.469,176698,1746694286568.5,-16,7,-135
1746694286607.344,176821,1746694286588.406,-13,15,-133
1746694286627.219,176888,1746694286608.219,-17,16,-135
1746694286647.063,176929,1746694286628.094,-25,14,-141
1746694286666.906,176934,1746694286647.969,-16,10,-137
1746694286686.75,176850,1746694286667.813,-17,7,-137
1746694286706.625,176691,1746694286687.656,-1,15,-132
1746694286726.5,176483,1746694286707.5,-15,9,-122
1746694286746.312,176324,1746694286727.406,-16,12,-137
1746694286766.187,176219,1746694286747.25,-32,14,-141
1746694286786.063,176152,1746694286767.063,-16,15,-135
1746694286805.906,176119,1746694286786.938,-25,7,-133
1746694286825.75,176127,1746694286806.812,-25,0,-129
1746694286845.625,176183,1746694286826.687,-16,7,-129
1746694286865.5,176188,1746694286846.5,-26,8,-141
1746694286885.375,176225,1746694286866.375,-25,15,-143
1746694286905.219,176234,1746694286886.219,-13,11,-141
1746694286925.156,176259,1746694286906.156,-16,16,-138
1746694286944.969,176266,1746694286926.031,-20,17,-137
1746694286964.813,176277,1746694286945.844,-20,15,-137
1746694286984.656,176234,1746694286965.719,-26,16,-137
1746694287004.531,176181,1746694286985.562,-24,17,-133
1746694287024.406,176107,1746694287005.406,-15,16,-135
1746694287044.25,176033,1746694287025.281,-20,10,-129
1746694287064.125,175962,1746694287045.156,-17,8,-141
1746694287084.0,175956,1746694287065.031,-24,11,-141
1746694287103.875,175935,1746694287084.875,-16,19,-141
1746694287123.719,175968,1746694287104.75,-20,14,-138
1746694287143.719,175995,1746694287124.656,-26,12,-130
1746694287163.469,176071,1746694287144.531,-24,3,-141
1746694287183.344,176167,1746694287164.375,-17,7,-136
1746694287203.188,176239,1746694287184.25,-8,11,-141
1746694287223.063,176281,1746694287204.125,-13,15,-140
1746694287242.937,176316,1746694287223.969,-26,12,-141
1746694287262.812,176346,1746694287243.844,-17,16,-133
1746694287282.688,176389,1746694287263.719,-25,12,-133
1746694287302.563,176458,1746694287283.594,-15,15,-137
1746694287322.437,176523,1746694287303.437,-16,12,-137
1746694287342.281,176559,1746694287323.312,-28,12,-141
1746694287362.156,176586,1746694287343.188,-23,8,-137
1746694287382.0,176632,1746694287363.063,-15,15,-137
1746694287401.875,176695,1746694287382.875,-20,19,-133
1746694287421.781,176803,1746694287402.781,-20,12,-141
1746694287441.562,176878,1746694287422.781,-12,15,-141
1746694287461.438,176936,1746694287442.469,-16,7,-130
1746694287481.281,177008,1746694287462.344,-24,15,-130
1746694287501.187,177109,1746694287482.187,-17,19,-135
1746694287521.156,177217,1746694287502.063,-24,11,-137
1746694287540.875,177336,1746694287522.063,-31,11,-137
1746694287560.781,177399,1746694287541.781,-27,6,-129
1746694287580.656,177495,1746694287561.656,-29,12,-137
1746694287600.469,177585,1746694287581.531,-9,12,-129
1746694287620.344,177664,1746694287601.375,-20,16,-137
1746694287640.219,177814,1746694287621.25,-10,11,-129
1746694287660.094,177961,1746694287641.094,-17,9,-133
1746694287679.9368,178085,1746694287660.937,-15,12,-141
1746694287699.781,178169,1746694287680.844,-16,15,-141
1746694287719.688,178279,1746694287700.656,-17,12,-137
1746694287739.562,178378,1746694287720.562,-24,14,-141
1746694287759.5,178402,1746694287740.406,-14,14,-136
1746694287779.25,178441,1746694287760.406,-16,14,-133
1746694287799.125,178370,1746694287780.156,-26,12,-129
1746694287819.0,178234,1746694287800.0,-29,14,-133
1746694287838.812,178032,1746694287819.875,-36,7,-137
1746694287858.687,177844,1746694287839.75,-19,13,-135
1746694287878.531,177717,1746694287859.5632,-16,12,-142
1746694287898.406,177670,1746694287879.437,-16,7,-137
1746694287918.281,177632,1746694287899.312,-13,9,-141
1746694287938.156,177666,1746694287919.156,-16,12,-137
1746694287958.031,177727,1746694287939.031,-26,16,-132
1746694287977.875,177795,1746694287958.906,-20,14,-133
1746694287997.719,177857,1746694287978.781,-16,16,-141
1746694288017.625,177901,1746694287998.656,-16,17,-144
1746694288037.5,177941,1746694288018.5,-14,19,-141
1746694288057.313,177956,1746694288038.375,-23,15,-141
1746694288077.219,177948,1746694288058.25,-13,9,-137
1746694288097.062,177879,1746694288078.125,-29,6,-141
1746694288116.9382,177818,1746694288097.969,-25,14,-137
1746694288136.813,177740,1746694288117.813,-17,12,-133
1746694288156.656,177663,1746694288137.719,-25,12,-144
1746694288176.562,177598,1746694288157.562,-15,16,-142
1746694288196.406,177557,1746694288177.406,-26,15,-135
1746694288216.25,177583,1746694288197.2808,-21,15,-136
1746694288236.125,177623,1746694288217.187,-16,20,-137
1746694288256.0,177647,1746694288237.0,-17,9,-135
1746694288275.875,177721,1746694288256.844,-20,11,-136
1746694288295.719,177787,1746694288276.75,-15,28,-131
1746694288315.594,177822,1746694288296.656,-29,12,-137
1746694288335.469,177881,1746694288316.469,-25,12,-125
1746694288355.344,177902,1746694288336.344,-20,15,-128
1746694288375.219,177962,1746694288356.219,-17,9,-135
1746694288395.062,178005,1746694288376.125,-32,8,-127
1746694288414.937,178068,1746694288395.969,-22,15,-127
1746694288434.813,178087,1746694288415.844,-16,9,-137
1746694288454.688,178144,1746694288435.719,-26,12,-137
1746694288474.5942,178198,1746694288455.594,-17,12,-138
1746694288494.5,178278,1746694288475.469,-28,11,-142
1746694288514.344,178339,1746694288495.375,-16,9,-137
1746694288534.25,178395,1746694288515.25,-12,14,-137
1746694288554.125,178452,1746694288535.156,-20,12,-141
1746694288574.0,178503,1746694288555.0,-10,12,-141
1746694288593.844,178560,1746694288574.906,-16,12,-141
1746694288613.75,178627,1746694288594.781,-24,14,-133
1746694288633.625,178712,1746694288614.625,-16,15,-129
1746694288653.5,178825,1746694288634.531,-25,20,-130
1746694288673.438,178938,1746694288654.406,-16,15,-132
1746694288693.25,179045,1746694288674.2808,-20,7,-137
1746694288713.125,179181,1746694288694.125,-13,15,-144
1746694288733.0,179250,1746694288714.0,-23,17,-137
1746694288752.844,179321,1746694288733.875,-20,8,-153
1746694288772.719,179393,1746694288753.75,-23,12,-133
1746694288792.594,179535,1746694288773.625,-18,16,-137
1746694288812.469,179666,1746694288793.469,-16,9,-144
1746694288832.344,179761,1746694288813.375,-25,9,-133
1746694288852.188,179849,1746694288833.25,-22,10,-126
1746694288872.094,179950,1746694288853.094,-24,12,-137
1746694288891.937,180041,1746694288872.969,-24,15,-137
1746694288911.781,180098,1746694288892.844,-16,12,-141
1746694288931.688,180112,1746694288912.688,-24,9,-135
1746694288951.562,180018,1746694288932.562,-18,7,-136
1746694288971.406,179854,1746694288952.406,-13,12,-136
1746694288991.281,179628,1746694288972.344,-10,20,-137
1746694289011.188,179442,1746694288992.188,-8,16,-143
1746694289031.0618,179330,1746694289012.062,-32,19,-137
1746694289050.937,179253,1746694289031.969,-16,14,-130
1746694289070.875,179247,1746694289051.844,-16,10,-137
1746694289090.688,179231,1746694289071.687,-14,7,-130
1746694289110.562,179245,1746694289091.562,-18,14,-141
1746694289130.406,179294,1746694289111.469,-36,24,-132
1746694289150.281,179325,1746694289131.313,-13,10,-161
1746694289170.187,179343,1746694289151.187,-24,15,-133
1746694289190.031,179365,1746694289171.062,-23,12,-137
1746694289209.906,179386,1746694289190.938,-24,15,-136
1746694289229.781,179358,1746694289210.844,-16,14,-129
1746694289249.656,179354,1746694289230.656,-15,7,-137
1746694289269.531,179317,1746694289250.531,-25,12,-141
1746694289289.375,179272,1746694289270.375,-15,17,-136
1746694289309.25,179210,1746694289290.313,-16,17,-141
1746694289329.125,179137,1746694289310.156,-24,19,-132
1746694289348.969,179130,1746694289330.031,-15,11,-133
1746694289368.844,179103,1746694289349.875,-24,11,-125
1746694289388.75,179147,1746694289369.781,-20,12,-129
1746694289408.594,179226,1746694289389.625,-13,12,-135
1746694289428.437,179305,1746694289409.5,-16,19,-132
1746694289448.344,179369,1746694289429.375,-24,12,-133
1746694289468.313,179454,1746694289449.219,-19,12,-133
1746694289488.063,179501,1746694289469.094,-26,3,-143
1746694289507.937,179537,1746694289488.969,-27,12,-135
1746694289527.812,179590,1746694289508.844,-12,19,-131
1746694289547.688,179617,1746694289528.688,-18,17,-128
1746694289567.563,179656,1746694289548.563,-20,15,-136
1746694289587.406,179702,1746694289568.437,-16,28,-135
1746694289607.281,179740,1746694289588.312,-18,9,-140
1746694289627.156,179804,1746694289608.156,-29,8,-143
1746694289647.031,179840,1746694289628.031,-25,12,-133
1746694289666.875,179897,1746694289647.969,-18,14,-137
1746694289686.75,179939,1746694289667.781,-17,12,-137
1746694289706.656,179997,1746694289687.625,-19,11,-136
1746694289726.531,180066,1746694289707.531,-20,5,-141
1746694289746.375,180146,1746694289727.437,-28,12,-127
1746694289766.281,180205,1746694289747.313,-13,19,-141
1746694289786.125,180271,1746694289767.125,-10,12,-135
1746694289805.969,180360,1746694289787.0,-21,5,-133
1746694289825.844,180466,1746694289806.906,-4,15,-130
1746694289845.75,180582,1746694289826.75,-16,8,-136
1746694289865.625,180703,1746694289846.656,-21,20,-129
1746694289885.469,180806,1746694289866.531,-13,16,-129
1746694289905.375,180889,1746694289886.375,-17,6,-133
1746694289925.25,181003,1746694289906.25,-17,15,-143
1746694289945.125,181097,1746694289926.125,-22,12,-147
1746694289964.969,181178,1746694289946.031,-25,14,-137
1746694289984.844,181286,1746694289965.906,-16,15,-137
1746694290004.719,181382,1746694289985.75,-16,14,-138
1746694290024.594,181476,1746694290005.594,-18,6,-141
1746694290044.406,181577,1746694290025.5,-20,11,-137
1746694290064.312,181695,1746694290045.344,-20,14,-133
1746694290084.219,181797,1746694290065.187,-20,14,-137
1746694290104.063,181864,1746694290085.094,-13,16,-141
1746694290123.906,181830,1746694290104.906,-17,16,-133
1746694290143.75,181689,1746694290124.781,-19,8,-136
1746694290163.625,181486,1746694290144.656,-16,14,-141
1746694290183.5,181285,1746694290164.531,-20,17,-116
1746694290203.344,181121,1746694290184.406,-20,15,-130
1746694290223.219,181007,1746694290204.281,-5,20,-141
1746694290243.094,180939,1746694290224.094,-25,10,-133
1746694290262.969,180930,1746694290243.969,-28,14,-132
1746694290282.813,180966,1746694290263.844,-21,25,-148
1746694290302.687,181001,1746694290283.719,-25,15,-137
1746694290322.531,181051,1746694290303.562,-17,12,-128
1746694290342.438,181050,1746694290323.406,-15,12,-135
1746694290362.281,181142,1746694290343.313,-16,12,-135
1746694290382.156,181266,1746694290363.219,-17,12,-133
1746694290402.031,181463,1746694290383.125,-17,9,-137
1746694290421.906,181618,1746694290402.906,-21,15,-142
1746694290441.781,181742,1746694290422.813,-16,15,-133
1746694290461.656,181800,1746694290442.687,-7,19,-141
1746694290481.562,181775,1746694290462.562,-24,15,-138
1746694290501.375,181742,1746694290482.406,-18,12,-136
1746694290521.281,181692,1746694290502.313,-25,30,-137
1746694290541.281,181706,1746694290522.156,-20,12,-141
1746694290561.0,181751,1746694290542.156,-32,15,-141
1746694290580.875,181780,1746694290561.906,-25,15,-132
1746694290600.719,181760,1746694290581.781,-16,17,-135
1746694290620.594,181778,1746694290601.625,-25,22,-137
1746694290640.5,181784,1746694290621.5,-20,16,-137
1746694290660.344,181819,1746694290641.375,-18,12,-133
1746694290680.25,181792,1746694290661.281,-16,27,-137
1746694290700.125,181777,1746694290681.125,-26,15,-133
1746694290720.0,181822,1746694290701.0,-16,12,-137
1746694290739.844,181917,1746694290720.875,-28,14,-132
1746694290759.75,182088,1746694290740.781,-18,14,-141
1746694290779.625,182240,1746694290760.625,-17,12,-135
1746694290799.469,182334,1746694290780.562,-24,19,-129
1746694290819.344,182364,1746694290800.344,-17,16,-133
1746694290839.219,182421,1746694290820.281,-25,14,-141
1746694290859.094,182450,1746694290840.094,-19,15,-141
1746694290878.937,182510,1746694290860.0,-24,14,-132
1746694290898.813,182503,1746694290879.844,-15,12,-135
1746694290918.688,182508,1746694290899.719,-25,23,-137
1746694290938.562,182564,1746694290919.562,-16,14,-141
1746694290958.406,182608,1746694290939.437,-9,14,-141
1746694290978.281,182671,1746694290959.344,-20,17,-132
1746694290998.156,182710,1746694290979.156,-25,15,-125
1746694291018.0,182761,1746694290999.062,-22,31,-137
1746694291037.875,182849,1746694291018.906,-23,16,-144
1746694291057.719,182941,1746694291038.781,-25,12,-141
1746694291077.625,183016,1746694291058.625,-16,7,-125
1746694291097.594,183107,1746694291078.531,-20,15,-137
1746694291117.344,183209,1746694291098.375,-29,16,-137
1746694291137.25,183256,1746694291118.219,-16,15,-129
1746694291157.125,183369,1746694291138.094,-19,12,-132
1746694291176.969,183478,1746694291158.0,-25,4,-129
1746694291196.844,183584,1746694291178.0,-28,13,-131
1746694291216.687,183671,1746694291197.75,-23,15,-125
1746694291236.563,183757,1746694291217.594,-17,14,-135
1746694291256.438,183865,1746694291237.437,-16,14,-137
1746694291276.375,183925,1746694291257.344,-21,12,-141
1746694291296.156,183976,1746694291277.281,-26,11,-137
1746694291316.063,183901,1746694291297.031,-12,11,-133
1746694291335.906,183747,1746694291316.937,-23,13,-135
1746694291355.75,183536,1746694291336.781,-16,9,-133
1746694291375.625,183309,1746694291356.688,-18,17,-136
1746694291395.5,183128,1746694291376.531,-21,15,-137
1746694291415.344,182995,1746694291396.375,-25,8,-137
1746694291435.219,182935,1746694291416.25,-17,14,-137
1746694291455.219,182909,1746694291436.125,-25,15,-137
1746694291475.0,182953,1746694291456.0,-18,7,-129
1746694291494.813,182991,1746694291475.844,-23,12,-135
1746694291514.687,183023,1746694291495.75,-20,12,-137
1746694291534.562,183051,1746694291515.625,-16,12,-144
1746694291554.469,183041,1746694291535.469,-15,16,-141
1746694291574.313,183034,1746694291555.344,-15,12,-141
1746694291594.187,183011,1746694291575.25,-27,14,-133
1746694291614.062,182983,1746694291595.031,-17,15,-136
1746694291633.938,182945,1746694291614.969,-23,15,-137
1746694291653.781,182901,1746694291634.813,-29,9,-133
1746694291673.781,182854,1746694291654.719,-16,16,-137
1746694291693.531,182826,1746694291674.531,-21,12,-139
1746694291713.406,182850,1746694291694.406,-18,1,-141
1746694291733.25,182907,1746694291714.313,-20,13,-137
1746694291753.094,182942,1746694291734.1868,-25,7,-137
1746694291772.969,182980,1746694291754.0,-18,17,-136
1746694291792.844,183045,1746694291773.875,-25,19,-137
1746694291812.6882,183126,1746694291793.719,-13,15,-132
1746694291832.562,183180,1746694291813.594,-13,16,-144
1746694291852.406,183229,1746694291833.406,-13,13,-132
1746694291872.281,183256,1746694291853.281,-25,11,-145
1746694291892.094,183310,1746694291873.156,-15,12,-137
1746694291911.969,183325,1746694291893.0308,-18,12,-133
1746694291931.844,183337,1746694291912.875,-15,7,-130
1746694291951.719,183375,1746694291932.719,-25,19,-141
1746694291971.563,183368,1746694291952.594,-10,12,-143
1746694291991.406,183406,1746694291972.469,-20,12,-143
1746694292011.312,183433,1746694291992.312,-28,15,-133
1746694292031.156,183476,1746694292012.187,-16,16,-137
1746694292051.0,183511,1746694292032.031,-20,28,-138
1746694292070.969,183549,1746694292051.875,-16,17,-136
1746694292090.75,183572,1746694292071.844,-16,15,-138
1746694292110.625,183646,1746694292091.625,-15,14,-132
1746694292130.469,183698,1746694292111.5,-15,7,-142
1746694292150.313,183770,1746694292131.375,-33,31,-137
1746694292170.187,183809,1746694292151.187,-25,12,-130
1746694292190.062,183902,1746694292171.031,-20,12,-132
1746694292209.906,183989,1746694292190.938,-29,11,-132
1746694292229.781,184075,1746694292210.844,-13,16,-141
1746694292249.656,184159,1746694292230.656,-18,7,-137
1746694292269.531,184290,1746694292250.531,-25,14,-137
1746694292289.406,184395,1746694292270.438,-25,12,-133
1746694292309.25,184488,1746694292290.281,-14,15,-132
1746694292329.156,184585,1746694292310.281,-25,12,-133
1746694292349.0,184707,1746694292330.031,-16,15,-133
1746694292368.875,184825,1746694292349.906,-20,12,-129
1746694292388.75,184946,1746694292369.781,-23,12,-141
1746694292408.687,185081,1746694292389.625,-20,12,-135
1746694292428.437,185327,1746694292409.562,-24,19,-137
1746694292448.312,185327,1746694292429.375,-24,19,-137
1746694292468.188,185429,1746694292449.219,-24,17,-135
1746694292488.063,185546,1746694292469.094,-12,10,-133
1746694292507.937,185683,1746694292488.969,-16,14,-132
1746694292527.812,185830,1746694292508.844,-20,11,-137
1746694292547.688,185927,1746694292528.719,-23,41,-137
1746694292567.563,186027,1746694292548.563,-25,17,-130
1746694292587.437,186125,1746694292568.406,-16,14,-136
1746694292607.25,186201,1746694292588.312,-16,7,-132
1746694292627.125,186213,1746694292608.125,-16,11,-144
1746694292646.969,186178,1746694292628.0,-24,15,-125
1746694292666.812,186078,1746694292647.875,-15,16,-137
1746694292686.687,185880,1746694292667.75,-15,14,-142
1746694292706.625,185656,1746694292687.594,-23,12,-137
1746694292726.406,185465,1746694292707.531,-18,12,-137
1746694292746.281,185351,1746694292727.281,-20,22,-136
1746694292766.125,185317,1746694292747.187,-23,14,-137
1746694292786.0,185322,1746694292766.969,-16,17,-132
1746694292805.875,185366,1746694292786.906,-25,20,-130
1746694292825.7192,185414,1746694292806.75,-14,15,-141
1746694292845.594,185485,1746694292826.625,-16,16,-135
1746694292865.469,185501,1746694292846.5,-32,15,-130
1746694292885.313,185519,1746694292866.313,-8,19,-135
1746694292905.188,185532,1746694292886.219,-25,16,-139
1746694292925.031,185536,1746694292906.125,-27,14,-131
1746694292944.906,185478,1746694292925.906,-25,24,-139
1746694292964.781,185417,1746694292945.813,-26,12,-137
1746694292984.625,185337,1746694292965.656,-25,16,-133
1746694293004.5,185258,1746694292985.531,-16,14,-128
1746694293024.375,185167,1746694293005.406,-18,19,-141
1746694293044.25,185119,1746694293025.281,-25,15,-129
1746694293064.094,185106,1746694293045.156,-20,15,-137
1746694293083.9692,185122,1746694293065.0,-20,12,-135
1746694293103.844,185117,1746694293084.875,-25,12,-137
1746694293123.688,185189,1746694293104.75,-15,12,-127
1746694293143.594,185228,1746694293124.625,-18,15,-137
1746694293163.469,185312,1746694293144.5,-18,12,-135
1746694293183.312,185350,1746694293164.344,-14,19,-144
1746694293203.219,185399,1746694293184.219,-13,12,-137
1746694293223.031,185456,1746694293204.125,-13,12,-137
1746694293242.906,185516,1746694293223.937,-28,12,-131
1746694293262.812,185569,1746694293243.812,-18,14,-129
1746694293282.656,185609,1746694293263.688,-23,15,-137
1746694293302.625,185693,1746694293283.594,-25,16,-137
1746694293322.406,185734,1746694293303.5,-30,13,-143
1746694293342.281,185788,1746694293323.281,-17,27,-143
1746694293362.094,185813,1746694293343.156,-19,17,-141
1746694293381.969,185842,1746694293363.0,-20,15,-135
1746694293401.875,185881,1746694293382.875,-26,15,-129
1746694293421.719,185984,1746694293402.75,-16,12,-141
1746694293441.562,186059,1746694293422.594,-14,12,-136
1746694293461.438,186118,1746694293442.594,-16,15,-141
1746694293481.313,186189,1746694293462.344,-24,16,-141
1746694293501.156,186266,1746694293482.187,-26,12,-141
1746694293521.031,186330,1746694293502.094,-20,14,-132
1746694293540.969,186400,1746694293521.969,-25,12,-137
1746694293560.781,186501,1746694293541.844,-26,19,-137
1746694293580.656,186629,1746694293561.656,-14,12,-137
1746694293600.5,186703,1746694293581.531,-24,12,-144
1746694293620.375,186847,1746694293601.406,-25,12,-138
1746694293640.25,186971,1746694293621.281,-28,14,-132
1746694293660.125,187121,1746694293641.125,-23,18,-137
1746694293679.9368,187248,1746694293661.0,-33,27,-137
1746694293699.844,187377,1746694293680.875,-16,16,-135
1746694293719.812,187509,1746694293700.7192,-18,12,-133
1746694293739.562,187590,1746694293720.594,-33,7,-108
1746694293759.437,187706,1746694293740.437,-20,16,-135
1746694293779.281,187816,1746694293760.344,-25,15,-133
1746694293799.156,187932,1746694293780.188,-25,14,-141
1746694293819.0,188022,1746694293800.031,-16,12,-141
1746694293838.906,188130,1746694293819.906,-26,11,-137
1746694293858.719,188258,1746694293839.813,-17,12,-133
1746694293878.625,188338,1746694293859.594,-16,19,-137
1746694293898.438,188418,1746694293879.5,-23,15,-135
1746694293918.344,188534,1746694293899.375,-31,19,-127
1746694293938.188,188607,1746694293919.25,-16,17,-135
1746694293958.063,188688,1746694293939.094,-25,19,-136
1746694293977.906,188723,1746694293958.937,-24,8,-141
1746694293997.781,188618,1746694293978.844,-28,17,-137
1746694294017.656,188485,1746694293998.688,-29,19,-143
1746694294037.531,188267,1746694294018.531,-27,15,-141
1746694294057.5,188122,1746694294038.406,-28,17,-141
1746694294077.25,188013,1746694294058.281,-26,16,-137
1746694294097.125,187990,1746694294078.125,-25,16,-137
1746694294116.969,188028,1746694294098.0,-4,12,-133
1746694294136.813,188102,1746694294117.844,-29,14,-128
1746694294156.687,188173,1746694294137.75,-20,15,-125
1746694294176.531,188246,1746694294157.594,-24,15,-142
1746694294196.438,188270,1746694294177.438,-25,15,-141
1746694294216.281,188300,1746694294197.313,-25,16,-137
1746694294236.125,188318,1746694294217.187,-18,17,-137
1746694294256.031,188361,1746694294237.031,-13,15,-137
1746694294275.906,188351,1746694294256.875,-16,15,-133
1746694294295.719,188344,1746694294276.813,-26,15,-133
1746694294315.594,188267,1746694294296.625,-32,19,-125
1746694294335.531,188189,1746694294316.5,-15,12,-133
1746694294355.344,188163,1746694294336.406,-22,16,-137
1746694294375.1882,188089,1746694294356.219,-23,19,-132
1746694294395.062,188075,1746694294376.125,-25,16,-131
1746694294414.937,188079,1746694294395.937,-20,30,-141
1746694294434.813,188149,1746694294415.781,-25,12,-136
1746694294454.656,188228,1746694294435.688,-16,14,-133
1746694294474.5,188326,1746694294455.5308,-16,7,-124
1746694294494.406,188402,1746694294475.406,-25,17,-141
1746694294514.25,188436,1746694294495.281,-16,15,-131
1746694294534.094,188460,1746694294515.125,-15,14,-141
1746694294553.969,188502,1746694294535.031,-20,23,-141
1746694294573.812,188558,1746694294554.844,-20,17,-136
1746694294593.687,188639,1746694294574.719,-20,9,-132
1746694294613.563,188739,1746694294594.594,-19,15,-137
1746694294633.406,188838,1746694294614.469,-4,7,-133
1746694294653.281,188910,1746694294634.281,-33,8,-137
1746694294673.25,189011,1746694294654.156,-15,8,-136
1746694294692.969,189073,1746694294674.156,-16,14,-137
1746694294712.875,189131,1746694294693.906,-28,7,-133
1746694294732.75,189213,1746694294713.781,-15,19,-136
1746694294752.594,189264,1746694294733.656,-20,15,-137
1746694294772.469,189313,1746694294753.5,-25,12,-143
1746694294792.344,189367,1746694294773.406,-18,12,-125
1746694294812.219,189409,1746694294793.219,-24,7,-135
1746694294832.062,189495,1746694294813.094,-25,14,-137
1746694294851.938,189568,1746694294832.969,-16,11,-136
1746694294871.813,189637,1746694294852.844,-16,8,-145
1746694294891.687,189685,1746694294872.656,-23,12,-136
1746694294911.531,189773,1746694294892.562,-16,10,-137
1746694294931.406,189888,1746694294912.438,-20,9,-141
1746694294951.281,189990,1746694294932.313,-20,11,-127
1746694294971.1558,190077,1746694294952.281,-37,16,-135
1746694294991.031,190175,1746694294972.062,-21,17,-133
1746694295010.906,190285,1746694294991.9382,-29,12,-133
1746694295030.75,190396,1746694295011.781,-25,7,-141
1746694295050.656,190528,1746694295031.656,-32,14,-137
1746694295070.469,190642,1746694295051.531,-20,16,-135
1746694295090.344,190711,1746694295071.375,-10,12,-141
1746694295110.219,190811,1746694295091.25,-28,9,-128
1746694295130.094,190881,1746694295111.125,-17,13,-135
1746694295149.937,190885,1746694295131.0,-25,19,-138
1746694295169.844,190937,1746694295150.875,-26,14,-133
1746694295189.781,190849,1746694295170.719,-18,13,-129
1746694295209.594,190735,1746694295190.594,-20,7,-130
1746694295229.437,190533,1746694295210.469,-24,15,-137
1746694295249.281,190404,1746694295230.344,-32,15,-137
1746694295269.188,190271,1746694295250.1882,-29,16,-151
1746694295289.062,190234,1746694295270.062,-16,17,-137
1746694295308.875,190190,1746694295289.906,-26,4,-135
1746694295328.781,190175,1746694295309.813,-16,12,-141
1746694295348.625,190272,1746694295329.625,-13,12,-136
1746694295368.469,190331,1746694295349.5,-25,19,-141
1746694295388.312,190344,1746694295369.375,-16,12,-133
1746694295408.187,190360,1746694295389.219,-18,14,-133
1746694295428.031,190357,1746694295409.094,-23,12,-144
1746694295447.906,190392,1746694295428.906,-25,20,-135
1746694295467.844,190408,1746694295448.812,-20,12,-127
1746694295487.625,190366,1746694295468.75,-12,16,-133
1746694295507.531,190310,1746694295488.5,-17,14,-130
1746694295527.344,190238,1746694295508.375,-20,12,-136
1746694295547.219,190187,1746694295528.281,-17,17,-146
1746694295567.125,190157,1746694295548.125,-16,15,-144
1746694295587.0,190117,1746694295568.0,-26,16,-137
1746694295606.844,190113,1746694295587.875,-23,13,-122
1746694295626.719,190127,1746694295607.75,-21,15,-131
1746694295646.594,190204,1746694295627.594,-8,12,-133
1746694295666.469,190261,1746694295647.469,-17,15,-112
1746694295686.313,190301,1746694295667.344,-20,11,-136
1746694295706.187,190361,1746694295687.25,-13,19,-149
1746694295726.062,190426,1746694295707.156,-15,17,-144
1746694295745.938,190469,1746694295726.969,-26,12,-137
1746694295765.781,190527,1746694295746.813,-25,16,-141
1746694295785.656,190625,1746694295766.687,-14,12,-141
1746694295805.562,190670,1746694295786.531,-25,12,-143
1746694295825.406,190745,1746694295806.469,-31,17,-132
1746694295845.25,190757,1746694295826.281,-20,19,-138
1746694295865.125,190811,1746694295846.187,-31,15,-131
1746694295885.0,190857,1746694295866.0,-25,12,-132
1746694295904.875,190906,1746694295885.875,-24,19,-130
1746694295924.688,190911,1746694295905.781,-26,17,-131
1746694295944.594,190910,1746694295925.625,-36,34,-125
1746694295964.469,190925,1746694295945.469,-25,17,-137
1746694295984.344,190980,1746694295965.375,-20,12,-122
1746694296004.188,191005,1746694295985.219,-18,7,-129
1746694296024.187,191071,1746694296005.156,-24,15,-137
1746694296043.937,191119,1746694296024.906,-26,23,-140
1746694296063.781,191163,1746694296044.812,-25,17,-135
1746694296083.656,191212,1746694296064.688,-16,12,-129
1746694296103.5308,191259,1746694296084.563,-18,19,-137
1746694296123.375,191314,1746694296104.406,-20,14,-136
1746694296143.25,191395,1746694296124.281,-26,16,-133
1746694296163.094,191457,1746694296144.156,-29,15,-141
1746694296183.0,191534,1746694296164.031,-33,12,-133
1746694296202.875,191616,1746694296183.844,-15,9,-141
1746694296222.719,191725,1746694296203.75,-11,19,-160
1746694296242.594,191797,1746694296223.625,-21,15,-141
1746694296262.469,191849,1746694296243.5,-23,10,-138
1746694296282.344,191898,1746694296263.344,-17,7,-133
1746694296302.187,191910,1746694296283.25,-17,15,-130
1746694296322.063,191907,1746694296303.125,-20,15,-137
1746694296341.938,191828,1746694296322.938,-16,15,-136
1746694296361.7808,191657,1746694296342.812,-22,14,-127
1746694296381.656,191443,1746694296362.656,-16,14,-136
1746694296401.531,191301,1746694296382.5632,-28,16,-132
1746694296421.375,191224,1746694296402.406,-16,16,-137
1746694296441.25,191181,1746694296422.25,-18,7,-137
1746694296461.094,191177,1746694296442.156,-32,17,-144
1746694296480.969,191174,1746694296462.0,-20,17,-136
1746694296500.844,191211,1746694296481.875,-29,12,-137
1746694296520.688,191203,1746694296501.781,-25,19,-137
1746694296540.562,191212,1746694296521.562,-24,17,-136
1746694296560.406,191203,1746694296541.406,-23,14,-136
1746694296580.313,191203,1746694296561.281,-16,12,-133
1746694296600.156,191210,1746694296581.187,-26,14,-137
1746694296620.031,191219,1746694296601.062,-20,13,-127
1746694296639.875,191155,1746694296620.938,-28,14,-116
1746694296659.75,191089,1746694296640.75,-17,14,-137
1746694296679.594,191020,1746694296660.625,-18,20,-129
1746694296699.437,190984,1746694296680.469,-17,15,-137
1746694296719.281,190939,1746694296700.375,-20,11,-137
1746694296739.156,190927,1746694296720.188,-24,23,-132
1746694296759.063,190947,1746694296740.031,-20,18,-127
1746694296778.906,190975,1746694296759.906,-25,24,-135
1746694296798.812,191050,1746694296779.844,-23,16,-130
1746694296818.656,191088,1746694296799.688,-21,19,-129
1746694296838.531,191133,1746694296819.563,-16,16,-128
1746694296858.375,191186,1746694296839.469,-21,9,-137
1746694296878.25,191181,1746694296859.281,-26,14,-141
1746694296898.125,191197,1746694296879.156,-29,14,-130
1746694296917.969,191243,1746694296899.0,-16,12,-128
1746694296937.844,191299,1746694296918.875,-18,10,-135
1746694296957.719,191323,1746694296938.781,-21,15,-139
1746694296977.594,191343,1746694296958.594,-16,15,-143
1746694296997.438,191391,1746694296978.469,-25,14,-136
1746694297017.313,191436,1746694296998.344,-17,11,-133
1746694297037.219,191448,1746694297018.219,-29,16,-132
1746694297057.062,191465,1746694297038.094,-32,17,-137
1746694297076.938,191410,1746694297057.969,-25,30,-132
1746694297096.781,191393,1746694297077.844,-28,9,-137
1746694297116.687,191399,1746694297097.687,-29,8,-137
1746694297136.563,191387,1746694297117.563,-20,9,-149
1746694297156.406,191404,1746694297137.438,-16,12,-137
1746694297176.281,191436,1746694297157.312,-18,11,-136
1746694297196.156,191444,1746694297177.156,-26,16,-132
1746694297216.125,191468,1746694297197.063,-24,19,-133
1746694297235.906,191542,1746694297216.938,-20,16,-137
1746694297255.781,191617,1746694297236.906,-16,12,-137
1746694297275.656,191707,1746694297256.687,-16,15,-137
1746694297295.531,191785,1746694297276.563,-16,12,-129
1746694297315.406,191881,1746694297296.438,-17,15,-137
1746694297335.281,191935,1746694297316.344,-16,15,-130
1746694297355.156,192022,1746694297336.156,-18,8,-129
1746694297375.0,192074,1746694297356.031,-28,19,-133
1746694297394.875,192169,1746694297375.938,-16,14,-121
1746694297414.75,192268,1746694297395.812,-9,12,-137
1746694297434.656,192374,1746694297415.656,-21,15,-132
1746694297454.5,192492,1746694297435.531,-18,12,-143
1746694297474.375,192596,1746694297455.406,-25,31,-138
1746694297494.25,192672,1746694297475.25,-15,14,-130
1746694297514.125,192700,1746694297495.125,-16,12,-137
1746694297533.969,192775,1746694297515.0,-20,13,-151
1746694297553.844,192871,1746694297534.906,-15,12,-137
1746694297573.719,192877,1746694297554.75,-13,12,-137
1746694297593.594,192832,1746694297574.594,-25,12,-136
1746694297613.437,192684,1746694297594.5,-15,14,-137
1746694297633.313,192529,1746694297614.344,-23,14,-141
1746694297653.188,192352,1746694297634.312,-26,19,-141
1746694297673.062,192228,1746694297654.094,-18,16,-137
1746694297692.875,192151,1746694297673.938,-17,16,-129
1746694297712.781,192119,1746694297693.813,-24,12,-141
1746694297732.656,192084,1746694297713.625,-23,14,-135
1746694297752.531,192104,1746694297733.531,-20,8,-125
1746694297772.375,192150,1746694297753.406,-23,16,-133
1746694297792.219,192176,1746694297773.281,-20,15,-133
1746694297812.094,192158,1746694297793.094,-27,12,-136
1746694297831.969,192146,1746694297813.0,-21,15,-132
1746694297851.844,192131,1746694297832.844,-14,12,-129
1746694297871.688,192093,1746694297852.781,-25,32,-137
1746694297891.594,192070,1746694297872.5942,-28,15,-132
1746694297911.437,192022,1746694297892.437,-17,14,-133
1746694297931.281,191968,1746694297912.344,-17,7,-129
1746694297951.156,191937,1746694297932.188,-20,12,-133
1746694297971.031,191884,1746694297952.063,-28,17,-137
1746694297990.875,191824,1746694297971.906,-21,16,-141
1746694298010.75,191809,1746694297991.781,-25,14,-125
1746694298030.688,191811,1746694298011.625,-26,14,-133
1746694298050.5,191848,1746694298031.563,-24,15,-125
1746694298070.344,191899,1746694298051.406,-23,15,-128
1746694298090.219,191946,1746694298071.25,-25,15,-135
1746694298110.094,191998,1746694298091.125,-31,12,-144
1746694298130.0,192058,1746694298110.969,-26,16,-137
1746694298149.812,192127,1746694298130.875,-20,14,-129
1746694298169.687,192197,1746694298150.719,-15,7,-137
1746694298189.594,192286,1746694298170.594,-26,14,-144
1746694298209.469,192327,1746694298190.5,-33,11,-132
1746694298229.312,192414,1746694298210.344,-16,14,-135
1746694298249.219,192471,1746694298230.219,-29,15,-137
1746694298269.063,192509,1746694298250.094,-20,7,-136
1746694298288.938,192573,1746694298269.938,-16,12,-135
1746694298308.781,192625,1746694298289.781,-20,11,-132
1746694298328.656,192669,1746694298309.719,-21,16,-144
1746694298348.531,192711,1746694298329.5,-16,14,-136
1746694298368.375,192754,1746694298349.406,-17,11,-136
1746694298388.25,192786,1746694298369.281,-19,14,-144
1746694298408.125,192810,1746694298389.156,-24,15,-137
1746694298427.969,192843,1746694298409.031,-20,14,-141
1746694298447.875,192880,1746694298428.875,-13,12,-141
1746694298467.719,192936,1746694298448.75,-25,12,-141
1746694298487.594,192963,1746694298468.75,-28,14,-130
1746694298507.469,193027,1746694298488.437,-16,16,-136
1746694298527.344,193074,1746694298508.344,-21,9,-144
1746694298547.188,193150,1746694298528.219,-16,12,-141
1746694298567.031,193231,1746694298548.062,-22,12,-132
1746694298586.937,193310,1746694298567.938,-23,15,-133
1746694298606.75,193388,1746694298587.781,-8,23,-132
1746694298626.656,193454,1746694298607.687,-25,17,-136
1746694298646.5,193566,1746694298627.562,-16,19,-137
1746694298666.375,193670,1746694298647.406,-12,16,-145
1746694298686.25,193754,1746694298667.25,-25,12,-132
1746694298706.094,193869,1746694298687.156,-27,27,-128
1746694298725.969,193971,1746694298707.031,-15,15,-128
1746694298745.875,194089,1746694298726.875,-26,16,-133
1746694298765.688,194208,1746694298746.75,-14,12,-137
1746694298785.563,194305,1746694298766.625,-16,15,-129
1746694298805.437,194369,1746694298786.437,-34,15,-137
1746694298825.281,194444,1746694298806.312,-23,14,-133
1746694298845.156,194484,1746694298826.156,-17,6,-136
1746694298865.031,194456,1746694298846.094,-25,12,-141
1746694298884.906,194366,1746694298865.906,-23,15,-120
1746694298904.781,194148,1746694298885.781,-16,23,-136
1746694298924.688,193960,1746694298905.688,-18,16,-142
1746694298944.5,193840,1746694298925.594,-34,16,-141
1746694298964.375,193793,1746694298945.375,-31,15,-131
1746694298984.25,193739,1746694298965.281,-40,12,-125
1746694299004.094,193733,1746694298985.125,-20,30,-127
1746694299023.969,193758,1746694299005.0,-20,12,-143
1746694299043.844,193785,1746694299024.844,-27,16,-137
1746694299063.687,193815,1746694299044.719,-20,7,-117
1746694299083.563,193797,1746694299064.594,-29,14,-129
1746694299103.406,193777,1746694299084.469,-15,19,-133
1746694299123.312,193744,1746694299104.312,-29,19,-129
1746694299143.187,193738,1746694299124.187,-17,17,-137
1746694299163.031,193715,1746694299144.094,-23,14,-144
1746694299182.906,193628,1746694299163.938,-17,16,-143
1746694299202.812,193562,1746694299183.812,-28,12,-144
1746694299222.656,193494,1746694299203.687,-31,19,-133
1746694299242.5,193416,1746694299223.563,-22,20,-133
1746694299262.406,193334,1746694299243.375,-16,14,-132
1746694299282.312,193287,1746694299263.281,-25,12,-129
1746694299302.125,193263,1746694299283.187,-25,15,-133
1746694299322.031,193310,1746694299303.063,-20,12,-137
1746694299341.875,193344,1746694299322.906,-17,12,-137
1746694299361.7808,193353,1746694299342.781,-26,19,-130
1746694299381.625,193391,1746694299362.656,-21,14,-135
1746694299401.5,193420,1746694299382.5632,-34,31,-132
1746694299421.375,193445,1746694299402.406,-17,16,-133
1746694299441.281,193415,1746694299422.25,-18,14,-133
1746694299461.094,193421,1746694299442.156,-24,14,-121
1746694299480.969,193404,1746694299462.031,-15,14,-141
1746694299500.813,193399,1746694299481.844,-31,14,-141
1746694299520.719,193432,1746694299501.719,-20,15,-137
1746694299540.562,193434,1746694299521.594,-18,16,-137
1746694299560.406,193410,1746694299541.469,-20,12,-143
1746694299580.281,193395,1746694299561.281,-25,17,-133
1746694299600.156,193361,1746694299581.156,-16,9,-129
1746694299619.969,193345,1746694299601.0,-17,14,-132
1746694299639.844,193355,1746694299620.906,-17,15,-141
1746694299659.719,193346,1746694299640.75,-16,14,-141
1746694299679.594,193283,1746694299660.625,-20,19,-145
1746694299699.437,193244,1746694299680.469,-18,3,-130
1746694299719.281,193195,1746694299700.344,-20,6,-141
1746694299739.156,193191,1746694299720.188,-33,17,-135
1746694299759.031,193189,1746694299740.031,-17,12,-140
1746694299778.937,193188,1746694299759.906,-25,15,-141
1746694299798.75,193212,1746694299779.781,-27,13,-138
1746694299818.625,193261,1746694299799.625,-17,16,-136
1746694299838.5,193305,1746694299819.5,-28,11,-133
1746694299858.313,193371,1746694299839.375,-31,17,-127
1746694299878.187,193383,1746694299859.219,-16,19,-129
1746694299898.062,193463,1746694299879.094,-26,12,-137
1746694299917.938,193540,1746694299898.938,-24,15,-130
1746694299937.813,193616,1746694299918.813,-18,12,-136
1746694299957.656,193716,1746694299938.719,-23,17,-137
1746694299977.562,193810,1746694299958.531,-21,19,-133
1746694299997.406,193910,1746694299978.406,-25,16,-141
1746694300017.25,193981,1746694299998.312,-19,14,-132
1746694300037.156,193985,1746694300018.156,-21,7,-141
1746694300057.0,193971,1746694300038.031,-18,15,-135
1746694300076.906,193950,1746694300057.906,-10,6,-130
1746694300096.781,193837,1746694300077.75,-17,15,-136
1746694300116.625,193617,1746694300097.687,-32,15,-129
1746694300136.5,193383,1746694300117.5,-18,28,-141
1746694300156.375,193214,1746694300137.406,-29,21,-138
1746694300176.219,193101,1746694300157.281,-26,19,-133
1746694300196.094,193020,1746694300177.094,-25,24,-135
1746694300215.969,192939,1746694300196.969,-19,12,-136
1746694300235.781,192922,1746694300216.844,-13,12,-141
1746694300255.688,192946,1746694300236.719,-17,12,-128
1746694300275.531,192971,1746694300256.562,-23,11,-137
1746694300295.406,192953,1746694300276.437,-25,16,-137
1746694300315.281,192919,1746694300296.281,-25,19,-137
1746694300335.156,192896,1746694300316.188,-23,17,-142
1746694300355.031,192909,1746694300336.062,-20,15,-137
1746694300374.937,192882,1746694300355.906,-23,19,-129
1746694300394.781,192772,1746694300375.844,-18,19,-138
1746694300414.625,192706,1746694300395.719,-16,14,-137
1746694300434.531,192644,1746694300415.5,-16,12,-137
1746694300454.406,192580,1746694300435.406,-30,12,-136
1746694300474.219,192489,1746694300455.313,-8,12,-137
1746694300494.125,192408,1746694300475.156,-24,14,-132
1746694300514.0,192402,1746694300495.0,-20,8,-137
1746694300533.844,192424,1746694300514.875,-27,12,-141
1746694300553.688,192439,1746694300534.781,-13,15,-130
1746694300573.563,192466,1746694300554.625,-17,17,-141
1746694300593.437,192527,1746694300574.469,-16,8,-152
1746694300613.281,192547,1746694300594.312,-25,14,-133
1746694300633.156,192549,1746694300614.188,-16,14,-133
1746694300653.031,192568,1746694300634.094,-20,15,-134
1746694300672.906,192633,1746694300653.937,-25,15,-125
1746694300692.75,192664,1746694300673.781,-23,15,-137
1746694300712.656,192713,1746694300693.656,-20,19,-136
1746694300732.531,192743,1746694300713.531,-25,12,-133
1746694300752.4058,192817,1746694300733.406,-21,10,-133
1746694300772.25,192841,1746694300753.312,-19,15,-132
1746694300792.156,192812,1746694300773.1882,-16,15,-137
1746694300812.031,192846,1746694300793.031,-29,14,-136
1746694300831.875,192839,1746694300812.906,-31,25,-133
1746694300851.75,192852,1746694300832.781,-17,18,-135
1746694300871.625,192841,1746694300852.625,-1,9,-132
1746694300891.469,192857,1746694300872.5,-20,14,-132
1746694300911.469,192919,1746694300892.344,-20,12,-141
1746694300931.219,192989,1746694300912.281,-17,27,-143
1746694300951.094,192995,1746694300932.156,-26,16,-137
1746694300971.0,193012,1746694300951.969,-25,17,-137
1746694300990.844,193038,1746694300971.844,-20,15,-121
1746694301010.687,193083,1746694300991.75,-20,17,-135
1746694301030.562,193130,1746694301011.625,-28,14,-137
1746694301050.438,193193,1746694301031.4382,-29,12,-129
1746694301070.312,193283,1746694301051.281,-20,7,-128
1746694301090.125,193435,1746694301071.219,-16,14,-133
1746694301110.0,193541,1746694301091.063,-16,17,-141
1746694301129.875,193616,1746694301110.875,-18,15,-133
1746694301149.719,193693,1746694301130.781,-23,16,-141
1746694301169.594,193751,1746694301150.625,-25,15,-144
1746694301189.563,193760,1746694301170.5,-28,11,-141
1746694301209.313,193774,1746694301190.438,-31,16,-133
1746694301229.156,193705,1746694301210.188,-15,7,-137
1746694301249.062,193534,1746694301230.062,-23,7,-135
1746694301268.937,193308,1746694301250.0,-25,9,-133
1746694301288.781,193097,1746694301269.813,-16,19,-135
1746694301308.688,192954,1746694301289.688,-18,17,-137
1746694301328.5,192804,1746694301309.531,-20,7,-136
1746694301348.406,192693,1746694301329.406,-29,15,-137
1746694301368.25,192627,1746694301349.281,-40,12,-131
1746694301388.094,192639,1746694301369.125,-22,16,-129
1746694301408.0,192671,1746694301389.0,-21,18,-136
1746694301427.844,192669,1746694301408.875,-21,17,-144
1746694301447.719,192636,1746694301428.719,-32,18,-136
1746694301467.563,192611,1746694301448.625,-29,19,-137
1746694301487.437,192613,1746694301468.469,-29,20,-136
1746694301507.312,192625,1746694301488.344,-17,16,-141
1746694301527.188,192554,1746694301508.188,-35,19,-143
1746694301546.969,192506,1746694301528.063,-23,16,-137
1746694301566.875,192444,1746694301547.906,-18,8,-127
1746694301586.781,192388,1746694301567.781,-28,15,-141
1746694301606.656,192332,1746694301587.625,-23,15,-135
1746694301626.469,192340,1746694301607.5,-25,11,-132
1746694301646.344,192352,1746694301627.4058,-31,12,-130
1746694301666.219,192392,1746694301647.219,-8,20,-137
1746694301686.094,192407,1746694301667.094,-15,11,-135
1746694301705.906,192457,1746694301686.969,-25,17,-135
1746694301725.75,192493,1746694301706.813,-17,23,-136
1746694301745.625,192540,1746694301726.656,-32,10,-137
1746694301765.5,192612,1746694301746.531,-16,14,-133
1746694301785.344,192650,1746694301766.375,-18,15,-129
1746694301805.219,192669,1746694301786.281,-28,17,-132
1746694301825.063,192697,1746694301806.125,-20,25,-133
1746694301844.937,192703,1746694301826.062,-18,15,-140
1746694301864.781,192718,1746694301845.844,-24,19,-137
1746694301884.625,192741,1746694301865.688,-20,15,-129
1746694301904.5,192758,1746694301885.5,-33,12,-133
1746694301924.469,192798,1746694301905.406,-32,9,-132
1746694301944.187,192814,1746694301925.344,-36,16,-133
1746694301964.063,192826,1746694301945.094,-17,15,-141
1746694301983.938,192862,1746694301964.969,-25,15,-133
1746694302003.812,192871,1746694301984.844,-17,7,-137
1746694302023.656,192876,1746694302004.719,-28,19,-143
1746694302043.5,192857,1746694302024.563,-17,14,-133
1746694302063.375,192900,1746694302044.375,-20,0,-125
1746694302083.281,192928,1746694302064.281,-25,19,-129
1746694302103.094,192990,1746694302084.156,-20,16,-133
1746694302123.0,193000,1746694302104.0,-27,12,-145
1746694302142.875,193019,1746694302123.875,-18,14,-131
1746694302162.75,193056,1746694302143.75,-17,12,-137
1746694302182.594,193116,1746694302163.625,-24,14,-144
1746694302202.469,193177,1746694302183.531,-19,16,-141
1746694302222.313,193213,1746694302203.3132,-23,15,-135
1746694302242.188,193302,1746694302223.25,-17,17,-125
1746694302262.031,193330,1746694302243.062,-26,17,-129
1746694302281.906,193421,1746694302262.969,-17,13,-137
1746694302301.781,193509,1746694302282.781,-23,15,-141
1746694302321.625,193605,1746694302302.656,-28,15,-133
1746694302341.5,193648,1746694302322.531,-20,7,-125
1746694302361.344,193679,1746694302342.406,-26,15,-120
1746694302381.219,193612,1746694302362.219,-16,16,-135
1746694302401.063,193463,1746694302382.094,-18,12,-141
1746694302420.906,193284,1746694302402.0,-25,15,-129
1746694302440.812,193153,1746694302421.812,-16,19,-141
1746694302460.6882,193050,1746694302441.688,-32,24,-135
1746694302480.531,192951,1746694302461.563,-21,13,-129
1746694302500.406,192886,1746694302481.437,-20,12,-137
1746694302520.281,192840,1746694302501.281,-20,12,-132
1746694302540.156,192837,1746694302521.156,-28,17,-141
1746694302560.0,192840,1746694302541.063,-25,16,-137
1746694302579.844,192857,1746694302560.906,-24,15,-141
1746694302599.719,192864,1746694302580.75,-21,19,-137
1746694302619.594,192847,1746694302600.625,-20,16,-137
1746694302639.438,192839,1746694302620.469,-17,12,-141
1746694302659.312,192844,1746694302640.344,-28,15,-141
1746694302679.219,192796,1746694302660.219,-20,15,-137
1746694302699.094,192744,1746694302680.094,-16,15,-141
1746694302719.031,192692,1746694302699.938,-16,11,-136
1746694302738.812,192632,1746694302719.937,-16,12,-137
1746694302758.687,192592,1746694302739.687,-24,15,-132
1746694302778.563,192579,1746694302759.594,-19,19,-137
1746694302798.406,192533,1746694302779.469,-29,31,-137
1746694302818.281,192516,1746694302799.312,-21,15,-127
1746694302838.125,192528,1746694302819.156,-28,15,-129
1746694302858.031,192537,1746694302839.0,-20,9,-120
1746694302877.875,192606,1746694302858.938,-27,12,-133
1746694302897.75,192640,1746694302878.812,-25,19,-130
1746694302917.625,192667,1746694302898.625,-16,19,-137
1746694302937.5,192692,1746694302918.5,-26,9,-130
1746694302957.344,192705,1746694302938.375,-29,16,-133
1746694302977.219,192739,1746694302958.25,-18,14,-137
1746694302997.125,192791,1746694302978.094,-25,14,-135
1746694303016.969,192838,1746694302998.0,-17,11,-137
1746694303036.844,192903,1746694303017.875,-16,14,-137
1746694303056.75,192924,1746694303037.75,-33,15,-133
1746694303076.594,192962,1746694303057.594,-18,14,-120
1746694303096.437,192979,1746694303077.469,-21,12,-129
1746694303116.313,192972,1746694303097.375,-18,15,-132
1746694303136.188,192990,1746694303117.188,-1,15,-125
1746694303156.094,193018,1746694303137.094,-32,11,-120
1746694303175.906,193046,1746694303156.969,-16,15,-141
1746694303195.813,193056,1746694303176.844,-21,35,-141
1746694303215.656,193047,1746694303196.687,-20,17,-137
1746694303235.562,193116,1746694303216.562,-21,14,-137
1746694303255.375,193117,1746694303236.406,-20,9,-128
1746694303275.25,193139,1746694303256.344,-31,15,-138
1746694303295.094,193184,1746694303276.156,-20,14,-127
1746694303314.969,193252,1746694303295.969,-20,9,-133
1746694303334.844,193337,1746694303315.875,-29,12,-137
1746694303354.719,193410,1746694303335.75,-20,19,-137
1746694303374.563,193499,1746694303355.625,-24,20,-137
1746694303394.437,193594,1746694303375.469,-28,14,-129
1746694303414.25,193740,1746694303395.312,-26,12,-133
1746694303434.156,193849,1746694303415.188,-32,19,-126
1746694303454.031,193925,1746694303435.031,-23,12,-130
1746694303473.906,193996,1746694303454.906,-26,6,-133
1746694303493.75,194030,1746694303474.781,-28,7,-144
1746694303513.594,194081,1746694303494.656,-26,14,-137
1746694303533.469,194039,1746694303514.438,-25,24,-136
1746694303553.375,193961,1746694303534.344,-16,16,-133
1746694303573.281,193835,1746694303554.25,-25,17,-137
1746694303593.094,193678,1746694303574.156,-20,15,-132
1746694303612.969,193513,1746694303593.969,-32,19,-133
1746694303632.812,193380,1746694303613.844,-17,16,-133
1746694303652.687,193275,1746694303633.719,-31,12,-129
1746694303672.563,193217,1746694303653.563,-18,12,-132
1746694303692.438,193193,1746694303673.438,-25,9,-140
1746694303712.281,193239,1746694303693.312,-20,20,-138
1746694303732.125,193238,1746694303713.187,-24,20,-141
1746694303752.0,193236,1746694303733.063,-25,16,-141
1746694303771.875,193220,1746694303752.969,-25,15,-141
1746694303791.719,193238,1746694303772.75,-20,22,-141
1746694303811.562,193206,1746694303792.625,-29,14,-137
1746694303831.437,193129,1746694303812.5,-31,14,-127
1746694303851.3132,192992,1746694303832.313,-16,14,-137
1746694303871.219,192904,1746694303852.219,-10,12,-137
1746694303891.031,192815,1746694303872.062,-16,16,-130
1746694303910.906,192738,1746694303891.906,-27,12,-137
1746694303930.781,192669,1746694303911.813,-16,18,-137
1746694303950.625,192607,1746694303931.6558,-23,12,-133
1746694303970.531,192565,1746694303951.5,-16,9,-132
1746694303990.375,192528,1746694303971.406,-17,16,-128
1746694304010.25,192608,1746694303991.25,-20,12,-112
1746694304030.094,192738,1746694304011.156,-32,15,-128
1746694304049.969,192865,1746694304031.0,-25,14,-129
1746694304069.875,192911,1746694304050.875,-17,9,-141
1746694304089.719,192926,1746694304070.781,-21,16,-137
1746694304109.594,192916,1746694304090.688,-29,15,-137
1746694304129.469,192965,1746694304110.531,-29,15,-141
1746694304149.344,192953,1746694304130.344,-28,18,-141
1746694304169.188,192961,1746694304150.219,-16,12,-136
1746694304189.063,193040,1746694304170.094,-29,12,-136
1746694304208.937,193046,1746694304189.969,-31,12,-127
1746694304228.812,193033,1746694304209.812,-16,28,-137
1746694304248.781,193033,1746694304229.719,-26,19,-135
1746694304268.563,193090,1746694304249.687,-24,17,-137
1746694304288.437,193149,1746694304269.469,-25,12,-130
1746694304308.312,193191,1746694304289.344,-26,15,-137
1746694304328.156,193240,1746694304309.219,-24,20,-137
1746694304348.063,193240,1746694304329.063,-20,15,-141
1746694304367.969,193204,1746694304348.937,-17,14,-138
1746694304387.781,193200,1746694304368.812,-17,24,-128
1746694304407.656,193180,1746694304388.688,-20,14,-137
1746694304427.5,193207,1746694304408.563,-26,11,-136
1746694304447.406,193196,1746694304428.375,-20,15,-129
1746694304467.312,193189,1746694304448.281,-17,15,-135
1746694304487.125,193155,1746694304468.188,-26,15,-137
1746694304507.0,193145,1746694304488.125,-18,12,-129
1746694304526.906,193173,1746694304507.906,-26,12,-130
1746694304546.781,193210,1746694304527.812,-20,17,-133
1746694304566.625,193240,1746694304547.656,-25,15,-137
1746694304586.5,193263,1746694304567.563,-29,17,-133
1746694304606.375,193272,1746694304587.406,-29,15,-125
1746694304626.281,193248,1746694304607.25,-25,18,-133
1746694304646.156,193215,1746694304627.156,-24,12,-141
1746694304665.969,193212,1746694304647.063,-16,15,-137
1746694304685.875,193236,1746694304666.875,-25,14,-130
1746694304705.719,193289,1746694304686.781,-18,7,-131
1746694304725.594,193390,1746694304706.625,-25,4,-137
1746694304745.469,193461,1746694304726.469,-20,9,-141
1746694304765.375,193439,1746694304746.375,-13,15,-133
1746694304785.187,193340,1746694304766.25,-20,16,-135
1746694304805.094,193193,1746694304786.125,-17,16,-133
1746694304824.938,193034,1746694304805.969,-26,15,-141
1746694304844.812,192956,1746694304825.844,-26,12,-132
1746694304864.687,192989,1746694304845.687,-18,12,-136
1746694304884.531,193097,1746694304865.594,-18,7,-142
1746694304904.406,193140,1746694304885.531,-23,15,-137
1746694304924.312,193211,1746694304905.281,-15,15,-133
1746694304944.125,193316,1746694304925.187,-28,11,-137
1746694304964.031,193400,1746694304945.031,-29,12,-133
1746694304983.906,193449,1746694304964.906,-20,12,-125
1746694305003.781,193539,1746694304984.781,-26,8,-136
1746694305023.625,193630,1746694305004.656,-25,21,-130
1746694305043.5,193650,1746694305024.531,-20,15,-128
1746694305063.375,193571,1746694305044.406,-17,12,-137
1746694305083.25,193437,1746694305064.25,-20,14,-129
1746694305103.094,193306,1746694305084.156,-18,12,-141
1746694305122.969,193157,1746694305104.031,-25,31,-137
1746694305142.969,193011,1746694305123.875,-17,12,-137
1746694305162.719,192862,1746694305143.875,-23,8,-129
1746694305182.531,192722,1746694305163.625,-25,11,-113
1746694305202.437,192570,1746694305183.531,-20,15,-137
1746694305222.281,192485,1746694305203.344,-26,12,-137
1746694305242.156,192409,1746694305223.187,-29,11,-137
1746694305262.031,192311,1746694305243.062,-16,10,-130
1746694305281.875,192187,1746694305262.969,-15,7,-141
1746694305301.781,192079,1746694305282.75,-16,15,-135
1746694305321.625,191993,1746694305302.656,-20,7,-137
1746694305341.5,191977,1746694305322.562,-32,7,-137
1746694305361.344,191984,1746694305342.406,-33,9,-126
1746694305381.344,191981,1746694305362.188,-24,15,-136
1746694305401.094,191910,1746694305382.25,-39,19,-137
1746694305420.937,191784,1746694305402.0,-14,15,-141
1746694305440.844,191703,1746694305421.875,-26,14,-143
1746694305460.656,191623,1746694305441.688,-17,12,-132
1746694305480.531,191555,1746694305461.563,-21,11,-128
1746694305500.406,191475,1746694305481.469,-28,17,-131
1746694305520.25,191429,1746694305501.281,-28,7,-136
1746694305540.125,191460,1746694305521.156,-31,16,-137
1746694305559.969,191411,1746694305541.0308,-18,12,-137
1746694305579.844,191365,1746694305560.906,-16,8,-145
1746694305599.719,191329,1746694305580.719,-16,8,-141
1746694305619.562,191392,1746694305600.594,-28,14,-141
1746694305639.406,191480,1746694305620.438,-21,9,-133
1746694305659.312,191507,1746694305640.344,-16,16,-130
1746694305679.156,191555,1746694305660.187,-20,12,-133
1746694305699.063,191573,1746694305680.063,-24,14,-129
1746694305718.906,191581,1746694305699.938,-29,16,-141
1746694305738.781,191593,1746694305719.844,-21,15,-137
1746694305758.687,191599,1746694305739.656,-28,19,-137
1746694305778.531,191564,1746694305759.563,-20,12,-125
1746694305798.375,191533,1746694305779.5,-23,13,-135
1746694305818.25,191501,1746694305799.2808,-26,14,-125
1746694305838.125,191478,1746694305819.156,-21,12,-141
1746694305858.0,191414,1746694305839.0,-16,12,-137
1746694305877.844,191354,1746694305858.875,-19,12,-137
1746694305897.688,191224,1746694305878.75,-16,12,-137
1746694305917.562,191053,1746694305898.594,-28,16,-145
1746694305937.469,190857,1746694305918.437,-24,17,-141
1746694305957.313,190678,1746694305938.313,-15,14,-136
1746694305977.156,190599,1746694305958.219,-25,14,-128
1746694305997.031,190588,1746694305978.062,-24,15,-121
1746694306016.906,190629,1746694305997.906,-18,14,-120
1746694306036.75,190741,1746694306017.813,-20,15,-125
1746694306056.625,190881,1746694306037.656,-20,12,-129
1746694306076.5,191029,1746694306057.5,-26,18,-142
1746694306096.344,191080,1746694306077.375,-19,18,-130
1746694306116.25,191108,1746694306097.25,-26,16,-135
1746694306136.094,191111,1746694306117.125,-26,14,-141
1746694306156.0,191146,1746694306137.0,-18,21,-137
1746694306175.875,191149,1746694306156.844,-20,11,-132
1746694306195.719,191076,1746694306176.875,-12,18,-128
1746694306215.594,190973,1746694306196.594,-16,17,-132
1746694306235.469,190847,1746694306216.469,-25,17,-141
1746694306255.312,190722,1746694306236.344,-29,12,-137
1746694306275.188,190592,1746694306256.219,-25,16,-130
1746694306295.063,190470,1746694306276.063,-15,12,-130
1746694306314.937,190376,1746694306295.937,-25,31,-143
1746694306334.844,190295,1746694306315.812,-29,15,-133
1746694306354.656,190235,1746694306335.719,-19,23,-132
1746694306374.563,190178,1746694306355.563,-29,9,-122
1746694306394.437,190163,1746694306375.469,-29,11,-121
1746694306414.25,190136,1746694306395.312,-21,15,-137
1746694306434.125,190067,1746694306415.188,-16,14,-137
1746694306454.031,190012,1746694306435.031,-24,9,-137
1746694306473.875,189939,1746694306454.937,-25,15,-125
1746694306493.75,189824,1746694306474.781,-24,14,-133
1746694306513.625,189744,1746694306494.656,-20,16,-133
1746694306533.5,189635,1746694306514.531,-26,15,-137
1746694306553.375,189565,1746694306534.375,-25,12,-141
1746694306573.219,189540,1746694306554.25,-28,11,-135
1746694306593.094,189527,1746694306574.125,-1,12,-133
1746694306612.938,189522,1746694306593.969,-25,15,-120
1746694306632.812,189563,1746694306613.844,-16,15,-138
1746694306652.687,189602,1746694306633.719,-25,15,-137
1746694306672.531,189668,1746694306653.594,-29,12,-133
1746694306692.469,189731,1746694306673.438,-23,15,-137
1746694306712.25,189801,1746694306693.312,-19,9,-125
1746694306732.156,189878,1746694306713.25,-21,8,-137
1746694306752.031,189967,1746694306733.063,-23,15,-137
1746694306771.906,190042,1746694306752.906,-28,15,-137
1746694306791.75,190104,1746694306772.781,-25,15,-130
1746694306811.625,190149,1746694306792.687,-18,14,-129
1746694306831.531,190130,1746694306812.5,-26,15,-125
1746694306851.406,190107,1746694306832.406,-20,9,-133
1746694306871.219,190129,1746694306852.281,-17,11,-143
1746694306891.094,190236,1746694306872.125,-33,7,-141
1746694306911.063,190293,1746694306892.0,-17,8,-129
1746694306930.844,190328,1746694306911.938,-26,11,-133
1746694306950.688,190351,1746694306931.719,-20,12,-137
1746694306970.562,190337,1746694306951.625,-29,12,-133
1746694306990.437,190295,1746694306971.469,-49,22,-141
1746694307010.313,190178,1746694306991.313,-17,14,-129
1746694307030.156,190034,1746694307011.219,-20,10,-144
1746694307050.031,189842,1746694307031.0618,-32,8,-137
1746694307069.906,189636,1746694307050.906,-17,12,-129
1746694307089.75,189517,1746694307070.781,-16,12,-137
1746694307109.594,189441,1746694307090.656,-18,0,-132
1746694307129.469,189466,1746694307110.469,-26,17,-135
1746694307149.312,189576,1746694307130.344,-20,15,-141
1746694307169.188,189616,1746694307150.219,-21,16,-144
1746694307189.031,189583,1746694307170.063,-13,17,-133
1746694307208.875,189757,1746694307189.937,-18,12,-143
1746694307228.781,191094,1746694307209.781,-20,18,-153
1746694307248.656,193884,1746694307229.625,-45,16,-199
1746694307268.5,194307,1746694307249.625,-159,-43,-317
1746694307288.406,196004,1746694307269.437,-211,-98,-528
1746694307308.25,200715,1746694307289.281,-64,8,-480
1746694307328.125,204255,1746694307309.156,227,-89,-303
1746694307348.0,204135,1746694307329.031,-223,76,-191
1746694307367.906,204133,1746694307348.875,-338,216,-67
1746694307387.75,203150,1746694307368.781,16,145,-4
1746694307407.625,203025,1746694307388.656,223,100,-16
1746694307427.594,204409,1746694307408.531,134,108,-9
1746694307447.375,205745,1746694307428.375,-31,71,91
1746694307467.25,206116,1746694307448.25,-118,13,123
1746694307487.094,205695,1746694307468.125,-88,-82,35
1746694307506.969,205431,1746694307488.031,28,-64,-33
1746694307526.875,205335,1746694307507.844,151,33,-5
1746694307546.75,203880,1746694307527.75,135,96,81
1746694307566.625,205611,1746694307547.625,63,3,-16
1746694307586.5,210244,1746694307567.531,-124,404,67
1746694307606.375,210866,1746694307587.406,11,143,3
1746694307626.25,210072,1746694307607.25,25,-104,-48
1746694307646.125,211912,1746694307627.125,78,-13,-112
1746694307665.969,213686,1746694307647.031,156,137,-113
1746694307685.875,215722,1746694307666.844,80,88,-29
1746694307705.719,216817,1746694307686.75,-40,30,-48
1746694307725.594,217566,1746694307706.656,20,40,-160
1746694307745.469,219657,1746694307726.531,-84,7,-157
1746694307765.375,220083,1746694307746.375,-52,83,-269
1746694307785.219,219890,1746694307766.25,-113,12,-271
1746694307805.094,219768,1746694307786.125,-82,12,-241
1746694307825.0,219381,1746694307806.0,-112,41,-224
1746694307844.875,219910,1746694307825.906,-88,-1,-208
1746694307864.719,220730,1746694307845.75,-74,-40,-160
1746694307884.594,220931,1746694307865.656,-61,-33,-160
1746694307904.469,220694,1746694307885.5,-57,-16,-161
1746694307924.344,220171,1746694307905.375,-74,6,-144
1746694307944.187,219790,1746694307925.219,-52,68,-160
1746694307964.063,219702,1746694307945.094,-42,88,-160
1746694307983.938,219703,1746694307964.938,-59,61,-176
1746694308003.812,219849,1746694307984.812,-53,63,-176
1746694308023.656,219878,1746694308004.687,-43,56,-160
1746694308043.5,219660,1746694308024.563,-53,35,-133
1746694308063.375,219434,1746694308044.406,-50,33,-96
1746694308083.25,219419,1746694308064.25,-44,38,-94
1746694308103.125,219635,1746694308084.156,-57,32,-96
1746694308122.969,219736,1746694308104.0,-57,23,-104
1746694308142.844,219134,1746694308123.844,-73,-30,-125
1746694308162.719,217535,1746694308143.719,-93,-93,-141
1746694308182.531,216382,1746694308163.594,-121,-12,-157
1746694308202.406,216872,1746694308183.469,-112,28,-112
1746694308222.281,217298,1746694308203.3132,-64,169,-109
1746694308242.156,214922,1746694308223.156,1,-166,-65
1746694308262.0,214667,1746694308243.062,-31,-167,-63
1746694308281.844,215281,1746694308262.906,-41,152,-89
1746694308301.75,216375,1746694308282.719,-32,120,-100
1746694308321.594,217521,1746694308302.625,-41,76,-144
1746694308341.469,217637,1746694308322.5,-50,15,-175
1746694308361.312,217490,1746694308342.438,-71,-30,-143
1746694308381.219,217179,1746694308362.219,-65,-7,-96
1746694308401.031,216752,1746694308382.094,-60,12,-95
1746694308420.906,216459,1746694308401.937,-52,24,-112
1746694308440.781,216243,1746694308421.812,-55,25,-120
1746694308460.656,216041,1746694308441.656,-50,12,-133
1746694308480.5,215869,1746694308461.531,-53,17,-125
1746694308500.375,215811,1746694308481.437,-47,1,-128
1746694308520.25,215820,1746694308501.281,-37,-9,-121
1746694308540.125,215899,1746694308521.125,-49,-4,-100
1746694308559.969,215902,1746694308541.0,-46,0,-96
1746694308579.844,215874,1746694308560.906,-49,30,-125
1746694308599.719,215803,1746694308580.75,-45,14,-129
1746694308619.625,215731,1746694308600.594,-42,3,-125
1746694308639.438,215616,1746694308620.469,-36,1,-112
1746694308659.312,215533,1746694308640.406,-52,9,-121
1746694308679.187,215453,1746694308660.187,-46,3,-112
1746694308699.063,215442,1746694308680.063,-57,0,-109
1746694308718.906,215391,1746694308699.938,-49,3,-112
1746694308738.781,215328,1746694308719.844,-50,7,-122
1746694308758.656,215255,1746694308739.687,-41,23,-125
1746694308778.563,215130,1746694308759.5,-40,24,-112
1746694308798.375,214897,1746694308779.438,-50,8,-125
1746694308818.25,214552,1746694308799.2808,-41,12,-130
1746694308838.156,214215,1746694308819.156,-33,9,-125
1746694308858.0,213865,1746694308839.031,-40,9,-129
1746694308877.844,213505,1746694308858.875,-41,8,-129
1746694308897.719,213105,1746694308878.781,-45,7,-127
1746694308917.594,212713,1746694308898.625,-68,2,-139
1746694308937.5,212439,1746694308918.5,-56,-2,-116
1746694308957.344,212321,1746694308938.344,-55,-4,-112
1746694308977.219,212316,1746694308958.219,-58,-25,-97
1746694308997.094,212346,1746694308978.094,-57,-14,-96
1746694309017.0,212248,1746694308998.0,-52,3,-96
1746694309036.813,212021,1746694309017.844,-52,12,-82
1746694309056.688,211642,1746694309037.719,-50,33,-125
1746694309076.562,211183,1746694309057.562,-35,26,-135
1746694309096.406,210790,1746694309077.469,-36,24,-153
1746694309116.313,210439,1746694309097.313,-36,20,-137
1746694309136.188,210206,1746694309117.219,-34,19,-127
1746694309156.031,210025,1746694309137.094,-32,12,-125
1746694309175.875,209953,1746694309156.875,-32,8,-112
1746694309195.75,209872,1746694309176.813,-37,11,-109
1746694309215.625,209758,1746694309196.625,-32,8,-112
1746694309235.5,209659,1746694309216.5,-48,7,-126
1746694309255.344,209571,1746694309236.375,-48,6,-126
1746694309275.219,209449,1746694309256.25,-49,2,-112
1746694309295.125,209332,1746694309276.125,-50,-4,-121
1746694309315.0,209140,1746694309296.0,-65,4,-112
1746694309334.844,208952,1746694309315.875,-48,12,-121
1746694309354.719,208781,1746694309335.75,-50,15,-125
1746694309374.563,208651,1746694309355.594,-48,15,-128
1746694309394.469,208563,1746694309375.469,-40,7,-121
1746694309414.281,208450,1746694309395.344,-40,10,-121
1746694309434.156,208330,1746694309415.156,-40,14,-145
1746694309454.031,208242,1746694309435.031,-45,9,-133
1746694309473.906,208240,1746694309454.937,-39,0,-122
1746694309493.75,208139,1746694309474.781,-32,1,-122
1746694309513.625,208138,1746694309494.656,-29,7,-133
1746694309533.5,208521,1746694309514.531,-42,28,-128
1746694309553.375,209240,1746694309534.375,-39,17,-112
1746694309573.25,209806,1746694309554.281,-55,-8,-112
1746694309593.094,210134,1746694309574.156,-55,-8,-109
1746694309612.969,210318,1746694309593.969,-45,6,-125
1746694309632.812,210318,1746694309613.875,-58,15,-121
1746694309652.687,210082,1746694309633.687,-48,7,-112
1746694309672.563,209724,1746694309653.594,-61,0,-112
1746694309692.438,209335,1746694309673.469,-42,7,-124
1746694309712.281,208929,1746694309693.312,-33,10,-112
1746694309732.156,208538,1746694309713.187,-55,7,-112
1746694309752.031,208157,1746694309733.063,-41,6,-112
1746694309771.875,207740,1746694309752.875,-40,12,-121
1746694309791.719,207346,1746694309772.75,-36,11,-127
1746694309811.594,206984,1746694309792.656,-45,10,-133
1746694309831.469,206639,1746694309812.5,-48,16,-120
1746694309851.344,206316,1746694309832.344,-40,14,-125
1746694309871.188,206051,1746694309852.219,-39,9,-133
1746694309891.031,205866,1746694309872.094,-39,9,-129
1746694309910.906,205707,1746694309891.937,-36,7,-121
1746694309930.75,205548,1746694309911.781,-40,7,-96
1746694309950.625,205355,1746694309931.6558,-40,7,-125
1746694309970.469,205160,1746694309951.531,-47,11,-121
1746694309990.344,204912,1746694309971.344,-36,9,-120
1746694310010.219,204664,1746694309991.25,-40,14,-112
1746694310030.063,204422,1746694310011.094,-36,14,-130
1746694310049.937,204190,1746694310030.969,-41,12,-137
1746694310069.781,203950,1746694310050.812,-42,7,-120
1746694310089.656,203739,1746694310070.656,-45,8,-125
1746694310109.5,203533,1746694310090.531,-49,14,-112
1746694310129.406,203363,1746694310110.406,-41,8,-121
1746694310149.281,203185,1746694310130.281,-40,0,-121
1746694310169.125,203015,1746694310150.094,-50,0,-129
1746694310188.969,202897,1746694310170.0,-39,4,-122
1746694310208.813,202740,1746694310189.844,-34,6,-120
1746694310228.719,202606,1746694310209.719,-33,10,-137
1746694310248.562,202487,1746694310229.594,-41,8,-130
1746694310268.469,202374,1746694310249.469,-50,6,-121
1746694310288.281,202236,1746694310269.375,-44,4,-121
1746694310308.156,202092,1746694310289.156,-36,12,-112
1746694310328.031,201938,1746694310309.031,-36,7,-121
1746694310347.875,201794,1746694310328.938,-48,11,-112
1746694310367.75,201661,1746694310348.781,-49,8,-112
1746694310387.625,201541,1746694310368.625,-49,3,-112
1746694310407.5,201378,1746694310388.5,-49,1,-112
1746694310427.375,201119,1746694310408.406,-40,7,-112
1746694310447.219,200761,1746694310428.281,-53,11,-125
1746694310467.125,200322,1746694310448.125,-47,12,-121
1746694310487.031,199867,1746694310468.0,-37,12,-125
1746694310506.844,199355,1746694310487.906,-60,7,-116
1746694310526.75,198915,1746694310507.719,-44,12,-112
1746694310546.594,198485,1746694310527.625,-48,11,-112
1746694310566.469,198057,1746694310547.5,-42,8,-136
1746694310586.344,197700,1746694310567.375,-40,12,-125
1746694310606.219,197359,1746694310587.219,-42,3,-125
1746694310626.094,197040,1746694310607.125,-52,12,-127
1746694310645.969,196722,1746694310626.969,-36,8,-125
1746694310665.813,196427,1746694310646.844,-37,3,-120
1746694310685.719,196125,1746694310666.719,-40,8,-121
1746694310705.594,195854,1746694310686.562,-40,9,-112
1746694310725.437,195580,1746694310706.5,-39,8,-121
1746694310745.344,195335,1746694310726.375,-56,11,-125
1746694310765.219,195044,1746694310746.219,-39,7,-112
1746694310785.094,194761,1746694310766.094,-40,3,-125
1746694310804.9368,194496,1746694310785.969,-42,3,-121
1746694310824.813,194256,1746694310805.844,-40,6,-125
1746694310844.656,193996,1746694310825.7192,-57,12,-121
1746694310864.562,193730,1746694310845.562,-44,12,-115
1746694310884.469,193515,1746694310865.469,-46,12,-125
1746694310904.281,193321,1746694310885.344,-44,7,-120
1746694310924.188,193091,1746694310905.156,-44,3,-125
1746694310944.0,192918,1746694310925.094,-45,12,-125
1746694310963.875,192748,1746694310944.906,-36,12,-137
1746694310983.75,192582,1746694310964.813,-47,15,-133
1746694311003.625,192446,1746694310984.656,-36,8,-121
1746694311023.469,192314,1746694311004.5,-39,6,-112
1746694311043.344,192189,1746694311024.375,-52,7,-125
1746694311063.219,192023,1746694311044.25,-50,8,-112
1746694311083.094,191907,1746694311064.156,-40,9,-121
1746694311102.937,191740,1746694311083.9692,-44,11,-125
1746694311122.781,191604,1746694311103.875,-41,7,-121
1746694311142.688,191489,1746694311123.688,-40,7,-121
1746694311162.531,191321,1746694311143.563,-57,11,-112
1746694311182.406,191230,1746694311163.406,-47,15,-120
1746694311202.25,191089,1746694311183.281,-45,9,-120
1746694311222.125,190966,1746694311203.156,-50,12,-112
1746694311242.0,190776,1746694311223.0,-42,16,-112
1746694311261.875,190500,1746694311242.875,-45,3,-112
1746694311281.719,190115,1746694311262.812,-40,14,-125
1746694311301.594,189676,1746694311282.562,-44,14,-123
1746694311321.469,189241,1746694311302.469,-45,9,-126
1746694311341.281,188807,1746694311322.375,-49,14,-121
1746694311361.187,188446,1746694311342.187,-44,7,-116
1746694311381.031,188115,1746694311362.062,-53,12,-121
1746694311400.938,187811,1746694311381.906,-41,9,-112
1746694311420.781,187524,1746694311401.875,-49,7,-112
1746694311440.656,187225,1746694311421.719,-39,12,-129
1746694311460.531,186943,1746694311441.531,-44,8,-121
1746694311480.406,186679,1746694311461.406,-29,2,-121
1746694311500.281,186431,1746694311481.313,-45,7,-127
1746694311520.125,186215,1746694311501.156,-46,8,-120
1746694311540.031,185966,1746694311521.031,-44,14,-121
1746694311559.906,185704,1746694311540.938,-41,7,-121
1746694311579.75,185452,1746694311560.812,-45,3,-112
1746694311599.625,185174,1746694311580.656,-40,9,-116
1746694311619.5,184920,1746694311600.469,-45,9,-120
1746694311639.344,184695,1746694311620.375,-52,0,-112
1746694311659.312,184479,1746694311640.25,-49,12,-125
1746694311679.062,184264,1746694311660.187,-52,3,-125
1746694311698.969,184067,1746694311679.969,-45,7,-108
1746694311718.813,183868,1746694311699.875,-49,9,-116
1746694311738.688,183658,1746694311719.688,-48,3,-120
1746694311758.562,183469,1746694311739.562,-51,14,-120
1746694311778.437,183303,1746694311759.469,-41,12,-121
1746694311798.281,183171,1746694311779.313,-45,6,-112
1746694311818.188,183043,1746694311799.312,-50,7,-124
1746694311838.031,182894,1746694311819.0,-39,7,-120
1746694311857.937,182750,1746694311838.937,-47,7,-121
1746694311877.75,182602,1746694311858.813,-39,8,-125
1746694311897.656,182449,1746694311878.688,-45,8,-121
1746694311917.531,182299,1746694311898.562,-45,6,-121
1746694311937.406,182156,1746694311918.406,-43,7,-125
1746694311957.281,182009,1746694311938.281,-40,7,-127
1746694311977.125,181868,1746694311958.188,-25,9,-121
1746694311997.031,181718,1746694311978.031,-52,9,-116
1746694312016.906,181572,1746694311997.906,-45,7,-129
1746694312036.781,181481,1746694312017.813,-49,15,-120
1746694312056.688,181348,1746694312037.719,-51,13,-112
1746694312076.594,181264,1746694312057.562,-45,7,-121
1746694312096.406,181140,1746694312077.469,-52,12,-121
1746694312116.313,181049,1746694312097.313,-41,12,-113
1746694312136.188,180931,1746694312117.188,-42,21,-120
1746694312156.0618,180836,1746694312137.062,-40,7,-116
1746694312175.906,180744,1746694312156.906,-42,9,-120
1746694312195.813,180628,1746694312176.844,-40,11,-127
1746694312215.688,180540,1746694312196.719,-46,7,-125
1746694312235.562,180444,1746694312216.594,-53,10,-128
1746694312255.438,180321,1746694312236.469,-42,12,-122
1746694312275.281,180154,1746694312256.344,-32,12,-121
1746694312295.187,179877,1746694312276.187,-57,12,-119
1746694312315.062,179535,1746694312296.094,-45,12,-127
1746694312334.906,179122,1746694312315.938,-40,8,-127
1746694312354.781,178711,1746694312335.813,-49,12,-125
1746694312374.719,178312,1746694312355.687,-37,15,-121
1746694312394.531,177975,1746694312375.531,-41,9,-122
1746694312414.375,177688,1746694312395.438,-50,7,-122
1746694312434.25,177430,1746694312415.281,-49,4,-112
1746694312454.187,177166,1746694312435.125,-45,7,-112
1746694312473.937,176900,1746694312455.062,-52,12,-112
1746694312493.844,176643,1746694312474.875,-45,15,-121
1746694312513.719,176388,1746694312494.75,-49,7,-125
1746694312533.594,176189,1746694312514.594,-50,6,-121
1746694312553.437,175992,1746694312534.469,-52,6,-112
1746694312573.312,175791,1746694312554.375,-56,6,-121
1746694312593.188,175552,1746694312574.219,-58,9,-112
1746694312613.063,175348,1746694312594.156,-44,16,-125
1746694312632.906,175130,1746694312613.969,-55,12,-125
1746694312652.812,174921,1746694312633.844,-49,14,-125
1746694312672.688,174721,1746694312653.656,-43,6,-125
1746694312692.563,174538,1746694312673.563,-50,7,-125
1746694312712.406,174349,1746694312693.437,-45,14,-112
1746694312732.281,174198,1746694312713.344,-44,9,-133
1746694312752.219,174038,1746694312733.188,-44,14,-130
1746694312772.031,173892,1746694312753.094,-44,14,-112
1746694312791.906,173745,1746694312772.937,-45,8,-116
1746694312811.781,173599,1746694312792.813,-52,11,-112
1746694312831.656,173494,1746694312812.6882,-37,12,-116
1746694312851.562,173374,1746694312832.562,-48,3,-127
1746694312871.406,173245,1746694312852.437,-39,10,-112
1746694312891.281,173122,1746694312872.344,-39,22,-121
1746694312911.156,172973,1746694312892.188,-41,11,-113
1746694312931.0,172863,1746694312912.031,-52,15,-112
1746694312950.875,172744,1746694312931.906,-45,12,-110
1746694312970.75,172651,1746694312951.781,-45,12,-112
1746694312990.625,172533,1746694312971.625,-40,4,-112
1746694313010.469,172440,1746694312991.562,-52,6,-121
1746694313030.344,172314,1746694313011.375,-36,11,-125
1746694313050.219,172224,1746694313031.25,-40,9,-125
1746694313070.0632,172139,1746694313051.094,-52,12,-125
1746694313089.938,172034,1746694313070.969,-45,15,-112
1746694313109.781,171946,1746694313090.844,-44,12,-120
1746694313129.656,171864,1746694313110.687,-45,15,-123
1746694313149.531,171788,1746694313130.531,-44,7,-112
1746694313169.344,171726,1746694313150.438,-25,5,-112
1746694313189.219,171628,1746694313170.281,-47,17,-120
1746694313209.094,171544,1746694313190.094,-55,12,-112
1746694313228.969,171476,1746694313209.969,-59,-1,-121
1746694313248.813,171406,1746694313229.844,-50,6,-127
1746694313268.719,171335,1746694313249.719,-45,6,-120
1746694313288.562,171274,1746694313269.562,-52,7,-120
1746694313308.469,171229,1746694313289.438,-47,6,-121
1746694313328.281,171184,1746694313309.344,-57,7,-112
1746694313348.187,171118,1746694313329.187,-40,12,-127
1746694313368.062,171033,1746694313349.062,-44,7,-126
1746694313387.938,170884,1746694313368.969,-52,11,-126
1746694313407.781,170650,1746694313388.844,-40,12,-122
1746694313427.656,170356,1746694313408.687,-41,7,-125
1746694313447.531,170061,1746694313428.531,-49,7,-112
1746694313467.406,169738,1746694313448.438,-49,7,-112
1746694313487.375,169437,1746694313468.281,-40,9,-120
1746694313507.156,169193,1746694313488.281,-44,7,-127
1746694313527.031,168995,1746694313508.0618,-45,3,-129
1746694313546.906,168842,1746694313527.938,-44,12,-132
1746694313566.781,168686,1746694313547.813,-41,9,-125
1746694313586.656,168543,1746694313567.687,-44,7,-116
1746694313606.531,168401,1746694313587.531,-48,10,-121
1746694313626.375,168279,1746694313607.438,-49,15,-124
1746694313646.344,168164,1746694313627.313,-53,12,-125
1746694313666.156,168036,1746694313647.187,-36,19,-133
1746694313686.031,167904,1746694313667.0,-39,1,-129
1746694313705.875,167758,1746694313686.969,-45,14,-121
1746694313725.75,167630,1746694313706.813,-45,11,-112
1746694313745.625,167481,1746694313726.625,-40,12,-131
1746694313765.5,167335,1746694313746.5,-45,11,-133
1746694313785.344,167204,1746694313766.406,-41,8,-112
1746694313805.25,167070,1746694313786.25,-56,8,-125
1746694313825.125,166943,1746694313806.156,-41,10,-121
1746694313844.969,166841,1746694313826.031,-50,12,-121
1746694313864.844,166752,1746694313845.875,-49,7,-129
1746694313884.75,166673,1746694313865.719,-47,8,-120
1746694313904.594,166581,1746694313885.594,-38,12,-128
1746694313924.469,166494,1746694313905.469,-40,12,-133
1746694313944.313,166414,1746694313925.375,-51,11,-126
1746694313964.219,166319,1746694313945.25,-39,9,-130
1746694313984.094,166232,1746694313965.062,-41,8,-122
1746694314003.906,166144,1746694313985.0,-57,9,-121
1746694314023.813,166068,1746694314004.844,-49,8,-112
1746694314043.688,165991,1746694314024.719,-52,4,-112
1746694314063.594,165908,1746694314044.594,-47,14,-121
1746694314083.406,165838,1746694314064.437,-40,0,-129
1746694314103.281,165773,1746694314084.313,-48,3,-125
1746694314123.156,165711,1746694314104.156,-45,3,-120
1746694314143.062,165648,1746694314124.031,-52,7,-128
1746694314162.906,165575,1746694314143.937,-50,14,-112
1746694314182.781,165512,1746694314163.8132,-41,11,-125
1746694314202.656,165452,1746694314183.656,-47,6,-112
1746694314222.531,165395,1746694314203.531,-57,8,-121
1746694314242.375,165352,1746694314223.406,-40,6,-112
1746694314262.25,165306,1746694314243.313,-49,9,-127
1746694314282.125,165246,1746694314263.156,-41,6,-125
1746694314302.0,165204,1746694314283.031,-45,11,-120
1746694314321.875,165142,1746694314302.875,-48,12,-125
1746694314341.75,165114,1746694314322.781,-45,8,-120
1746694314361.625,165061,1746694314342.594,-45,13,-120
1746694314381.5,165045,1746694314362.531,-44,11,-120
1746694314401.375,165041,1746694314382.406,-42,8,-112
1746694314421.25,165008,1746694314402.281,-57,7,-132
1746694314441.125,164959,1746694314422.125,-41,6,-120
1746694314461.062,164883,1746694314442.0,-48,7,-121
1746694314480.844,164716,1746694314461.875,-49,3,-96
1746694314500.719,164521,1746694314481.75,-42,3,-121
1746694314520.563,164333,1746694314501.594,-49,7,-125
1746694314540.406,164095,1746694314521.437,-48,11,-127
1746694314560.281,163889,1746694314541.344,-45,6,-121
1746694314580.125,163677,1746694314561.188,-56,9,-112
1746694314600.031,163509,1746694314581.031,-51,18,-121
1746694314619.844,163387,1746694314600.937,-48,11,-117
1746694314639.719,163285,1746694314620.75,-51,9,-112
1746694314659.562,163202,1746694314640.625,-48,11,-121
1746694314679.4382,163116,1746694314660.469,-56,8,-112
1746694314699.281,163001,1746694314680.344,-47,9,-121
1746694314719.156,162935,1746694314700.219,-44,8,-112
1746694314739.0,162860,1746694314720.031,-40,8,-113
1746694314758.875,162783,1746694314739.906,-36,-1,-112
1746694314778.719,162668,1746694314759.7808,-48,7,-112
1746694314798.594,162580,1746694314779.625,-48,12,-112
1746694314818.469,162454,1746694314799.5,-49,24,-123
1746694314838.375,162336,1746694314819.344,-50,14,-112
1746694314858.219,162242,1746694314839.25,-45,12,-121
1746694314878.062,162129,1746694314859.125,-44,7,-120
1746694314897.969,162037,1746694314878.969,-41,6,-125
1746694314917.813,161952,1746694314898.844,-49,14,-112
1746694314937.656,161883,1746694314918.688,-44,15,-121
1746694314957.531,161845,1746694314938.531,-42,9,-116
1746694314977.375,161816,1746694314958.437,-49,5,-112
1746694314997.281,161743,1746694314978.281,-49,15,-121
1746694315017.125,161690,1746694314998.156,-40,15,-125
1746694315036.969,161649,1746694315018.062,-52,15,-121
1746694315056.844,161604,1746694315037.875,-48,15,-121
1746694315076.719,161570,1746694315057.75,-45,7,-112
1746694315096.563,161531,1746694315077.625,-46,8,-125
1746694315116.469,161486,1746694315097.469,-53,9,-114
1746694315136.312,161423,1746694315117.344,-52,7,-125
1746694315156.187,161385,1746694315137.187,-57,23,-121
1746694315176.031,161358,1746694315157.063,-44,8,-120
1746694315195.938,161323,1746694315176.938,-50,7,-121
1746694315215.75,161284,1746694315196.781,-41,5,-105
1746694315235.656,161252,1746694315216.687,-40,7,-112
1746694315255.469,161204,1746694315236.531,-46,8,-121
1746694315275.344,161205,1746694315256.375,-45,7,-120
1746694315295.25,161185,1746694315276.219,-41,6,-125
1746694315315.094,161167,1746694315296.125,-47,9,-112
1746694315334.969,161144,1746694315315.969,-50,11,-125
1746694315354.844,161101,1746694315335.875,-42,9,-127
1746694315374.719,161095,1746694315355.719,-52,4,-121
1746694315394.562,161082,1746694315375.594,-49,11,-112
1746694315414.531,161082,1746694315395.469,-52,11,-127
1746694315434.344,161081,1746694315415.406,-44,9,-125
1746694315454.219,161076,1746694315435.219,-47,3,-125
1746694315474.094,161046,1746694315455.094,-46,7,-121
1746694315493.938,160976,1746694315474.969,-40,8,-120
1746694315513.844,160910,1746694315494.844,-50,7,-120
1746694315533.719,160775,1746694315514.75,-47,8,-121
1746694315553.594,160626,1746694315534.594,-49,15,-117
1746694315573.625,160472,1746694315554.5,-50,3,-112
1746694315593.375,160315,1746694315574.5,-47,12,-121
1746694315613.25,160201,1746694315594.25,-37,6,-109
1746694315633.188,160098,1746694315614.156,-47,7,-112
1746694315653.0,160040,1746694315634.063,-40,15,-116
1746694315672.875,159990,1746694315653.875,-40,4,-112
1746694315692.781,159967,1746694315673.75,-57,3,-112
1746694315712.625,159945,1746694315693.688,-48,6,-112
1746694315732.5,159903,1746694315713.563,-52,11,-125
1746694315752.375,159856,1746694315733.406,-50,7,-112
1746694315772.219,159824,1746694315753.25,-52,7,-112
1746694315792.125,159819,1746694315773.125,-29,4,-125
1746694315812.0,159809,1746694315793.031,-56,4,-121
1746694315831.875,159771,1746694315812.875,-44,3,-112
1746694315851.687,159717,1746694315832.75,-45,15,-121
1746694315871.625,159682,1746694315852.625,-52,12,-112
1746694315891.469,159663,1746694315872.531,-48,7,-125
1746694315911.344,159597,1746694315892.375,-45,9,-120
1746694315931.281,159556,1746694315912.187,-43,9,-104
1746694315951.062,159515,1746694315932.094,-57,12,-117
1746694315970.938,159518,1746694315951.969,-52,9,-112
1746694315990.813,159545,1746694315971.812,-50,7,-112
1746694316010.656,159517,1746694315991.719,-53,4,-121
1746694316030.625,159506,1746694316011.563,-50,11,-112
1746694316050.438,159530,1746694316031.4382,-37,15,-116
1746694316070.312,159545,1746694316051.281,-37,4,-129
1746694316090.219,159586,1746694316071.25,-45,6,-125
1746694316110.094,159583,1746694316091.125,-52,4,-112
1746694316130.0,159601,1746694316111.0,-55,9,-114
1746694316149.844,159578,1746694316130.875,-45,9,-121
1746694316169.719,159593,1746694316150.75,-50,9,-127
1746694316189.594,159634,1746694316170.594,-36,6,-121
1746694316209.469,159635,1746694316190.469,-44,9,-113
1746694316229.281,159620,1746694316210.344,-56,12,-130
1746694316249.187,159596,1746694316230.219,-52,16,-122
1746694316269.094,159578,1746694316250.031,-42,7,-116
1746694316288.938,159610,1746694316269.969,-34,0,-114
1746694316308.781,159649,1746694316289.844,-45,9,-116
1746694316328.656,159641,1746694316309.656,-45,12,-120
1746694316348.531,159623,1746694316329.531,-55,15,-112
1746694316368.406,159561,1746694316349.406,-37,12,-112
1746694316388.2192,159539,1746694316369.25,-48,8,-129
1746694316408.094,159490,1746694316389.156,-40,12,-144
1746694316428.0,159498,1746694316408.969,-40,7,-120
1746694316447.844,159540,1746694316428.875,-52,8,-121
1746694316467.688,159578,1746694316448.75,-52,12,-112
1746694316487.594,159590,1746694316468.594,-53,11,-112
1746694316507.437,159594,1746694316488.437,-41,12,-125
1746694316527.313,159603,1746694316508.313,-45,12,-121
1746694316547.156,159645,1746694316528.188,-40,11,-112
1746694316567.0,159670,1746694316548.094,-40,5,-121
1746694316586.875,159678,1746694316567.875,-44,6,-125
1746694316606.813,159666,1746694316587.781,-56,11,-121
1746694316626.594,159655,1746694316607.719,-52,7,-125
1746694316646.4692,159632,1746694316627.5,-42,8,-121
1746694316666.312,159518,1746694316647.344,-41,1,-120
1746694316686.188,159424,1746694316667.219,-57,15,-121
1746694316706.031,159325,1746694316687.063,-44,9,-122
1746694316725.906,159216,1746694316706.937,-49,8,-133
1746694316745.75,159149,1746694316726.781,-52,7,-120
1746694316765.594,159107,1746694316746.625,-48,7,-112
1746694316785.438,159103,1746694316766.5,-60,4,-121
1746694316805.344,159134,1746694316786.344,-47,9,-113
1746694316825.219,159162,1746694316806.219,-52,11,-112
1746694316845.031,159208,1746694316826.094,-34,8,-125
1746694316864.938,159251,1746694316845.969,-38,12,-132
1746694316884.813,159260,1746694316865.813,-47,7,-120
1746694316904.687,159293,1746694316885.687,-40,7,-112
1746694316924.531,159327,1746694316905.562,-40,7,-120
1746694316944.406,159373,1746694316925.438,-44,11,-125
1746694316964.281,159382,1746694316945.312,-42,9,-112
1746694316984.1868,159387,1746694316965.187,-44,7,-112
1746694317004.0,159338,1746694316985.063,-45,7,-125
1746694317023.875,159310,1746694317004.906,-46,10,-112
1746694317043.75,159354,1746694317024.781,-47,0,-121
1746694317063.625,159380,1746694317044.656,-47,12,-114
1746694317083.469,159393,1746694317064.531,-48,11,-112
1746694317103.344,159389,1746694317084.344,-50,7,-125
1746694317123.344,159440,1746694317104.25,-45,11,-121
1746694317143.125,159474,1746694317124.125,-49,1,-133
1746694317162.937,159519,1746694317144.0,-52,4,-121
1746694317182.844,159569,1746694317163.875,-47,4,-125
1746694317202.688,159634,1746694317183.719,-36,8,-127
1746694317222.594,159679,1746694317203.594,-50,7,-125
1746694317242.406,159761,1746694317223.437,-44,7,-112
1746694317262.281,159785,1746694317243.313,-53,6,-125
1746694317282.156,159833,1746694317263.188,-42,7,-113
1746694317302.031,159887,1746694317283.062,-46,6,-121
1746694317321.906,159923,1746694317302.937,-48,6,-125
1746694317341.781,159951,1746694317322.813,-55,12,-121
1746694317361.656,159955,1746694317342.656,-40,12,-112
1746694317381.5,159899,1746694317362.531,-45,7,-121
1746694317401.375,159862,1746694317382.406,-48,8,-112
1746694317421.313,159859,1746694317402.281,-40,6,-112
1746694317441.125,159904,1746694317422.125,-45,7,-116
1746694317460.969,159959,1746694317442.0,-49,15,-112
1746694317480.844,159989,1746694317461.875,-41,16,-112
1746694317500.719,160034,1746694317481.75,-53,8,-125
1746694317520.594,160074,1746694317501.594,-44,8,-112
1746694317540.469,160172,1746694317521.4692,-47,14,-119
1746694317560.312,160241,1746694317541.375,-42,7,-112
1746694317580.188,160310,1746694317561.188,-40,12,-120
1746694317600.063,160374,1746694317581.063,-51,8,-112
1746694317619.906,160416,1746694317600.969,-40,6,-112
1746694317639.781,160477,1746694317620.844,-45,12,-125
1746694317659.656,160571,1746694317640.656,-58,12,-121
1746694317679.563,160584,1746694317660.563,-48,12,-121
1746694317699.375,160624,1746694317680.437,-52,8,-112
1746694317719.25,160651,1746694317700.312,-31,11,-128
1746694317739.125,160690,1746694317720.125,-45,8,-125
1746694317759.0,160686,1746694317740.0,-50,7,-125
1746694317778.8442,160653,1746694317759.875,-52,19,-121
1746694317798.687,160565,1746694317779.75,-41,12,-112
1746694317818.562,160459,1746694317799.562,-25,6,-112
1746694317838.438,160388,1746694317819.469,-48,14,-116
1746694317858.313,160270,1746694317839.313,-44,9,-112
1746694317878.187,160243,1746694317859.219,-57,23,-112
1746694317898.062,160237,1746694317879.062,-47,5,-125
1746694317917.938,160256,1746694317898.938,-47,11,-129
1746694317937.781,160309,1746694317918.844,-52,14,-109
1746694317957.656,160374,1746694317938.719,-41,12,-125
1746694317977.5,160440,1746694317958.5,-49,0,-112
1746694317997.375,160495,1746694317978.406,-42,3,-129
1746694318017.281,160522,1746694317998.25,-40,8,-116
1746694318037.0942,160577,1746694318018.187,-52,15,-112
1746694318057.0,160617,1746694318038.0,-52,9,-111
1746694318076.813,160660,1746694318057.844,-47,0,-112
1746694318096.688,160653,1746694318077.75,-50,9,-125
1746694318116.531,160700,1746694318097.562,-49,10,-120
1746694318136.406,160677,1746694318117.4368,-47,8,-121
1746694318156.25,160685,1746694318137.313,-55,8,-121
1746694318176.125,160708,1746694318157.156,-52,7,-125
1746694318196.031,160750,1746694318177.031,-52,7,-121
1746694318215.844,160773,1746694318196.906,-57,8,-121
1746694318235.719,160824,1746694318216.719,-45,7,-112
1746694318255.563,160883,1746694318236.625,-49,8,-129
1746694318275.438,160978,1746694318256.5,-56,3,-117
1746694318295.344,161092,1746694318276.312,-42,4,-112
1746694318315.156,161154,1746694318296.219,-44,8,-122
1746694318335.031,161210,1746694318316.063,-47,10,-133
1746694318354.906,161253,1746694318335.938,-45,8,-120
1746694318374.781,161329,1746694318355.812,-45,12,-125
1746694318394.625,161387,1746694318375.656,-40,8,-110
1746694318414.5,161417,1746694318395.563,-56,4,-112
1746694318434.375,161467,1746694318415.406,-48,11,-133
1746694318454.281,161523,1746694318435.281,-36,3,-112
1746694318474.125,161565,1746694318455.156,-48,4,-129
1746694318494.0,161623,1746694318475.063,-49,7,-121
1746694318513.875,161676,1746694318494.844,-45,8,-125
1746694318533.75,161686,1746694318514.781,-52,8,-114
1746694318553.594,161726,1746694318534.594,-39,8,-112
1746694318573.469,161778,1746694318554.5,-42,3,-112
1746694318593.344,161833,1746694318574.375,-50,11,-121
1746694318613.219,161895,1746694318594.219,-40,19,-112
1746694318633.0618,161957,1746694318614.094,-49,12,-125
1746694318652.938,161991,1746694318634.0,-41,8,-112
1746694318672.813,162048,1746694318653.813,-39,16,-121
1746694318692.687,162083,1746694318673.687,-44,11,-125
1746694318712.531,162127,1746694318693.594,-42,15,-125
1746694318732.406,162154,1746694318713.438,-40,10,-120
1746694318752.281,162225,1746694318733.281,-40,7,-126
1746694318772.125,162280,1746694318753.125,-40,23,-116
1746694318792.031,162320,1746694318773.031,-57,9,-130
1746694318811.906,162304,1746694318792.938,-46,7,-125
1746694318831.75,162307,1746694318812.781,-53,7,-112
1746694318851.625,162299,1746694318832.656,-49,8,-112
1746694318871.5,162267,1746694318852.531,-42,7,-112
1746694318891.406,162153,1746694318872.375,-54,7,-112
1746694318911.281,161996,1746694318892.281,-40,12,-112
1746694318931.125,161882,1746694318912.156,-41,7,-121
1746694318951.031,161856,1746694318932.062,-52,7,-130
1746694318970.906,161830,1746694318951.906,-52,14,-121
1746694318990.781,161838,1746694318971.75,-45,12,-120
1746694319010.625,161887,1746694318991.656,-48,4,-112
1746694319030.5,161922,1746694319011.563,-52,7,-121
1746694319050.531,161983,1746694319031.375,-53,7,-125
1746694319070.281,162017,1746694319051.281,-50,16,-113
1746694319090.125,162085,1746694319071.187,-40,8,-125
1746694319110.031,162167,1746694319091.0,-42,6,-120
1746694319129.906,162194,1746694319110.906,-40,12,-137
1746694319149.781,162217,1746694319130.781,-41,11,-125
1746694319169.656,162246,1746694319150.719,-44,11,-122
1746694319189.531,162216,1746694319170.563,-58,8,-112
1746694319209.406,162207,1746694319190.406,-41,11,-112
1746694319229.25,162189,1746694319210.281,-52,8,-125
1746694319249.125,162227,1746694319230.219,-55,12,-110
1746694319269.031,162261,1746694319250.0,-41,8,-112
1746694319288.906,162287,1746694319269.938,-46,3,-121
1746694319308.781,162337,1746694319289.812,-56,9,-121
1746694319328.687,162382,1746694319309.719,-55,12,-112
1746694319348.563,162479,1746694319329.563,-49,11,-121
1746694319368.438,162535,1746694319349.438,-42,7,-125
1746694319388.281,162573,1746694319369.281,-40,11,-121
1746694319408.125,162622,1746694319389.219,-65,6,-117
1746694319428.031,162674,1746694319409.031,-48,12,-121
1746694319447.875,162756,1746694319428.906,-45,6,-112
1746694319467.719,162787,1746694319448.781,-50,7,-119
1746694319487.625,162815,1746694319468.656,-40,9,-121
1746694319507.469,162872,1746694319488.469,-49,0,-120
1746694319527.344,162941,1746694319508.375,-44,6,-125
1746694319547.188,162953,1746694319528.188,-45,7,-112
1746694319567.062,162980,1746694319548.094,-52,14,-121
1746694319586.906,163000,1746694319567.938,-45,8,-125
1746694319606.75,163071,1746694319587.781,-40,8,-112
1746694319626.625,163092,1746694319607.687,-45,9,-121
1746694319646.5,163145,1746694319627.594,-40,12,-125
1746694319666.406,163185,1746694319647.375,-39,11,-125
1746694319686.219,163216,1746694319667.281,-45,8,-121
1746694319706.094,163279,1746694319687.125,-50,16,-112
1746694319725.969,163334,1746694319707.031,-49,9,-112
1746694319745.906,163388,1746694319726.875,-48,15,-125
1746694319765.688,163429,1746694319746.719,-42,16,-114
1746694319785.563,163497,1746694319766.594,-44,9,-112
1746694319805.437,163537,1746694319786.469,-50,12,-121
1746694319825.312,163552,1746694319806.344,-49,14,-113
1746694319845.156,163599,1746694319826.219,-40,11,-112
1746694319865.063,163675,1746694319846.094,-53,12,-122
1746694319884.937,163721,1746694319865.937,-52,9,-121
1746694319904.812,163767,1746694319885.844,-41,12,-121
1746694319924.656,163780,1746694319905.688,-49,14,-116
1746694319944.531,163814,1746694319925.563,-53,9,-122
1746694319964.406,163832,1746694319945.437,-43,11,-125
1746694319984.281,163841,1746694319965.312,-40,7,-125
1746694320004.125,163792,1746694319985.188,-45,9,-112
1746694320024.0,163686,1746694320005.063,-48,12,-109
1746694320043.906,163521,1746694320024.906,-49,15,-121
1746694320063.75,163414,1746694320044.812,-52,15,-121
1746694320083.594,163313,1746694320064.656,-50,14,-122
1746694320103.5,163288,1746694320084.531,-49,22,-121
1746694320123.406,163256,1746694320104.375,-47,7,-126
1746694320143.219,163269,1746694320124.281,-45,16,-124
1746694320163.094,163308,1746694320144.094,-43,9,-113
1746694320182.969,163360,1746694320164.031,-50,7,-112
1746694320202.844,163417,1746694320183.875,-37,16,-113
1746694320222.687,163464,1746694320203.75,-49,14,-121
1746694320242.563,163508,1746694320223.594,-53,12,-112
1746694320262.438,163593,1746694320243.469,-41,27,-117
1746694320282.312,163624,1746694320263.344,-46,7,-125
1746694320302.156,163627,1746694320283.219,-42,7,-125
1746694320322.063,163572,1746694320303.063,-49,6,-110
1746694320341.906,163572,1746694320322.938,-49,9,-125
1746694320361.7808,163585,1746694320342.812,-45,11,-112
1746694320381.656,163595,1746694320362.687,-51,12,-112
1746694320401.531,163582,1746694320382.5632,-44,8,-125
1746694320421.406,163587,1746694320402.406,-50,10,-122
1746694320441.312,163669,1746694320422.312,-39,14,-121
1746694320461.125,163762,1746694320442.187,-56,7,-121
1746694320481.0,163805,1746694320462.063,-50,16,-118
1746694320500.906,163830,1746694320481.906,-52,23,-125
1746694320520.812,163878,1746694320501.781,-40,13,-121
1746694320540.594,163950,1746694320521.687,-48,12,-122
1746694320560.469,163994,1746694320541.531,-44,9,-116
1746694320580.375,164035,1746694320561.375,-42,9,-125
1746694320600.219,164095,1746694320581.25,-61,31,-125
1746694320620.094,164169,1746694320601.125,-56,14,-113
1746694320639.969,164223,1746694320621.0,-41,11,-112
1746694320659.844,164253,1746694320640.875,-57,9,-109
1746694320679.719,164271,1746694320660.75,-41,3,-112
1746694320699.594,164300,1746694320680.625,-44,0,-112
1746694320719.5,164365,1746694320700.5,-50,9,-112
1746694320739.406,164418,1746694320720.406,-40,8,-112
1746694320759.25,164436,1746694320740.281,-49,14,-121
1746694320779.125,164460,1746694320760.187,-41,7,-121
1746694320799.031,164516,1746694320779.969,-41,3,-120
1746694320818.875,164560,1746694320799.906,-42,9,-125
1746694320838.719,164572,1746694320819.781,-36,7,-121
1746694320858.656,164584,1746694320839.656,-45,4,-112
1746694320878.5,164638,1746694320859.531,-55,3,-121
1746694320898.406,164711,1746694320879.406,-55,6,-121
1746694320918.281,164745,1746694320899.312,-49,11,-125
1746694320938.188,164759,1746694320919.219,-40,6,-112
1746694320958.031,164809,1746694320939.031,-40,4,-116
1746694320977.906,164856,1746694320958.937,-41,7,-122
1746694320997.75,164890,1746694320978.812,-40,11,-125
1746694321017.656,164925,1746694320998.656,-40,12,-112
1746694321037.531,164968,1746694321018.531,-49,12,-125
1746694321057.375,165031,1746694321038.406,-41,16,-112
1746694321077.25,165076,1746694321058.281,-41,8,-121
1746694321097.125,165084,1746694321078.125,-36,9,-120
1746694321117.0,165150,1746694321098.0,-41,5,-128
1746694321136.906,165182,1746694321117.906,-49,9,-121
1746694321156.719,165187,1746694321137.812,-44,8,-119
1746694321176.656,165144,1746694321157.625,-42,8,-121
1746694321196.531,165033,1746694321177.531,-52,7,-112
1746694321216.375,164872,1746694321197.406,-49,19,-121
1746694321236.281,164731,1746694321217.312,-40,7,-112
1746694321256.156,164595,1746694321237.188,-50,10,-121
1746694321276.031,164527,1746694321257.063,-45,11,-121
1746694321295.875,164506,1746694321276.906,-46,8,-124
1746694321315.781,164549,1746694321296.812,-51,9,-122
1746694321335.656,164587,1746694321316.625,-40,8,-120
1746694321355.5,164652,1746694321336.531,-52,4,-125
1746694321375.406,164690,1746694321356.437,-42,9,-112
1746694321395.281,164728,1746694321376.312,-49,9,-125
1746694321415.188,164750,1746694321396.125,-45,7,-127
1746694321435.063,164805,1746694321416.063,-42,8,-125
1746694321454.906,164826,1746694321435.906,-42,1,-114
1746694321474.781,164819,1746694321455.812,-52,16,-121
1746694321494.656,164807,1746694321475.688,-45,8,-125
1746694321514.531,164788,1746694321495.531,-46,8,-129
1746694321534.406,164773,1746694321515.4368,-48,7,-127
1746694321554.281,164743,1746694321535.281,-40,8,-112
1746694321574.156,164701,1746694321555.156,-47,7,-125
1746694321594.031,164735,1746694321575.063,-42,11,-121
1746694321613.937,164780,1746694321594.937,-42,6,-112
1746694321633.781,164849,1746694321614.813,-52,12,-112
1746694321653.656,164890,1746694321634.688,-44,12,-114
1746694321673.531,164896,1746694321654.562,-40,7,-111
1746694321693.437,164907,1746694321674.437,-57,7,-112
1746694321713.406,164983,1746694321694.313,-40,4,-112
1746694321733.156,165050,1746694321714.281,-63,7,-112
1746694321753.031,165087,1746694321734.062,-57,12,-114
1746694321772.906,165130,1746694321753.906,-39,12,-112
1746694321792.813,165137,1746694321773.813,-48,8,-125
1746694321812.656,165175,1746694321793.719,-44,10,-120
1746694321832.531,165209,1746694321813.562,-42,1,-112
1746694321852.437,165269,1746694321833.437,-59,19,-121
1746694321872.313,165311,1746694321853.313,-42,9,-121
1746694321892.188,165325,1746694321873.188,-47,11,-129
1746694321912.062,165341,1746694321893.094,-40,11,-111
1746694321931.937,165344,1746694321913.0,-45,9,-112
1746694321951.813,165403,1746694321932.844,-49,9,-121
1746694321971.656,165438,1746694321952.719,-50,8,-113
1746694321991.562,165429,1746694321972.594,-40,12,-112
1746694322011.437,165441,1746694321992.4368,-45,11,-125
1746694322031.281,165485,1746694322012.469,-56,8,-121
1746694322051.156,165534,1746694322032.188,-54,12,-112
1746694322071.0,165600,1746694322052.062,-45,3,-112
1746694322090.906,165649,1746694322071.906,-50,6,-121
1746694322110.813,165685,1746694322091.781,-42,7,-125
1746694322130.625,165699,1746694322111.719,-46,9,-122
1746694322150.5,165724,1746694322131.531,-42,8,-113
1746694322170.375,165795,1746694322151.375,-42,7,-112
1746694322190.219,165851,1746694322171.281,-48,9,-121
1746694322210.125,165895,1746694322191.125,-48,14,-121
1746694322230.0,165895,1746694322211.0,-44,6,-112
1746694322249.906,165926,1746694322230.906,-52,31,-122
1746694322269.75,165940,1746694322250.781,-45,9,-125
1746694322289.656,165911,1746694322270.656,-45,6,-112
1746694322309.531,165816,1746694322290.562,-49,4,-111
1746694322329.469,165705,1746694322310.437,-40,11,-125
1746694322349.25,165551,1746694322330.313,-49,9,-121
1746694322369.1558,165411,1746694322350.188,-41,1,-129
1746694322389.031,165320,1746694322370.0,-46,7,-120
1746694322408.875,165249,1746694322389.937,-49,3,-113
1746694322428.781,165252,1746694322409.906,-57,7,-112
1746694322448.656,165292,1746694322429.688,-45,7,-121
1746694322468.531,165343,1746694322449.562,-47,6,-121
1746694322488.375,165394,1746694322469.406,-41,12,-127
1746694322508.281,165432,1746694322489.313,-52,9,-112
1746694322528.156,165481,1746694322509.156,-44,12,-112
1746694322548.031,165518,1746694322529.031,-52,23,-112
1746694322567.938,165556,1746694322548.938,-45,8,-112
1746694322587.75,165597,1746694322568.875,-48,19,-122
1746694322607.656,165577,1746694322588.625,-47,11,-114
1746694322627.5,165541,1746694322608.562,-44,9,-112
1746694322647.375,165531,1746694322628.406,-49,17,-121
1746694322667.25,165521,1746694322648.281,-49,7,-112
1746694322687.125,165510,1746694322668.156,-52,9,-121
1746694322707.0,165527,1746694322688.0,-43,9,-127
1746694322726.906,165556,1746694322707.875,-52,10,-125
1746694322746.719,165604,1746694322727.75,-44,15,-130
1746694322766.625,165644,1746694322747.625,-45,15,-112
1746694322786.469,165680,1746694322767.5,-45,8,-122
1746694322806.312,165737,1746694322787.375,-60,12,-106
1746694322826.219,165780,1746694322807.313,-40,7,-125
1746694322846.063,165823,1746694322827.094,-52,8,-112
1746694322865.906,165844,1746694322846.937,-50,12,-112
1746694322885.812,165869,1746694322866.812,-52,12,-112
1746694322905.688,165923,1746694322886.719,-52,12,-112
1746694322925.531,165984,1746694322906.563,-55,7,-121
1746694322945.406,165982,1746694322926.437,-49,24,-121
1746694322965.281,166056,1746694322946.344,-45,12,-125
1746694322985.156,166088,1746694322966.156,-19,7,-125
1746694323005.0,166120,1746694322986.031,-47,7,-116
1746694323024.844,166145,1746694323005.906,-51,11,-112
1746694323044.719,166173,1746694323025.75,-52,26,-121
1746694323064.594,166201,1746694323045.625,-52,9,-113
1746694323084.5,166243,1746694323065.469,-57,15,-112
1746694323104.312,166287,1746694323085.344,-45,6,-103
1746694323124.187,166353,1746694323105.281,-57,8,-121
1746694323144.031,166378,1746694323125.063,-49,14,-112
1746694323163.938,166454,1746694323144.875,-44,8,-127
1746694323183.75,166505,1746694323164.812,-44,7,-112
1746694323203.656,166557,1746694323184.656,-42,11,-112
1746694323223.5,166570,1746694323204.531,-50,9,-121
1746694323243.406,166592,1746694323224.375,-40,7,-125
1746694323263.2192,166660,1746694323244.281,-52,7,-125
1746694323283.125,166731,1746694323264.156,-61,8,-121
1746694323303.0,166721,1746694323284.0,-46,12,-121
1746694323322.875,166725,1746694323303.906,-52,12,-117
1746694323342.75,166737,1746694323323.781,-42,8,-121
1746694323362.625,166784,1746694323343.656,-43,8,-112
1746694323382.469,166798,1746694323363.469,-49,4,-120
1746694323402.344,166727,1746694323383.375,-39,11,-117
1746694323422.188,166609,1746694323403.25,-41,7,-109
1746694323442.094,166455,1746694323423.125,-64,16,-116
1746694323461.969,166291,1746694323442.938,-44,12,-120
1746694323481.813,166177,1746694323462.844,-49,8,-133
1746694323501.688,166068,1746694323482.719,-41,1,-129
1746694323521.562,166032,1746694323502.594,-41,9,-125
1746694323541.437,166004,1746694323522.438,-53,10,-121
1746694323561.281,166024,1746694323542.313,-56,16,-125
1746694323581.187,166067,1746694323562.219,-45,7,-112
1746694323601.094,166100,1746694323582.062,-55,9,-121
1746694323620.906,166143,1746694323602.0,-48,15,-113
1746694323640.781,166163,1746694323621.813,-48,11,-116
1746694323660.625,166189,1746694323641.687,-44,7,-125
1746694323680.5,166250,1746694323661.469,-48,11,-120
1746694323700.375,166253,1746694323681.406,-52,4,-112
1746694323720.219,166236,1746694323701.281,-48,11,-121
1746694323740.125,166221,1746694323721.1558,-44,3,-115
1746694323760.0,166191,1746694323741.0,-40,1,-125
1746694323779.844,166153,1746694323760.875,-61,6,-121
1746694323799.719,166149,1746694323780.719,-45,8,-111
1746694323819.563,166162,1746694323800.625,-49,12,-122
1746694323839.437,166223,1746694323820.469,-38,3,-129
1746694323859.344,166256,1746694323840.312,-44,3,-125
1746694323879.156,166272,1746694323860.219,-48,7,-125
1746694323899.063,166300,1746694323880.094,-50,12,-125
1746694323918.937,166322,1746694323899.937,-44,11,-122
1746694323938.781,166381,1746694323919.812,-49,9,-112
1746694323958.656,166416,1746694323939.688,-41,9,-112
1746694323978.5308,166434,1746694323959.563,-45,7,-112
1746694323998.406,166462,1746694323979.437,-48,11,-112
1746694324018.25,166507,1746694323999.344,-40,8,-112
1746694324038.156,166582,1746694324019.188,-52,12,-125
1746694324058.031,166610,1746694324039.062,-40,7,-112
1746694324077.906,166616,1746694324058.906,-38,6,-112
1746694324097.75,166615,1746694324078.781,-56,7,-125
1746694324117.625,166652,1746694324098.656,-52,9,-112
1746694324137.531,166643,1746694324118.531,-44,8,-121
1746694324157.406,166679,1746694324138.406,-56,11,-121
1746694324177.25,166695,1746694324158.281,-49,11,-120
1746694324197.125,166732,1746694324178.156,-42,8,-122
1746694324217.0,166777,1746694324198.031,-55,9,-126
1746694324236.875,166814,1746694324217.875,-43,7,-120
1746694324256.75,166843,1746694324237.781,-45,12,-121
1746694324276.594,166873,1746694324257.688,-46,12,-121
1746694324296.5,166909,1746694324277.469,-44,6,-125
1746694324316.375,166972,1746694324297.344,-42,8,-112
1746694324336.1868,166988,1746694324317.25,-49,12,-129
1746694324356.094,166996,1746694324337.094,-48,12,-112
1746694324375.969,167025,1746694324357.0,-55,12,-113
1746694324395.812,167065,1746694324376.844,-50,12,-127
1746694324415.656,167086,1746694324396.719,-52,9,-125
1746694324435.563,167121,1746694324416.594,-48,12,-125
1746694324455.406,167075,1746694324436.406,-40,7,-116
1746694324475.281,167002,1746694324456.312,-52,10,-112
1746694324495.156,166911,1746694324476.187,-41,6,-125
1746694324515.031,166752,1746694324496.094,-44,11,-125
1746694324534.969,166591,1746694324515.875,-44,12,-120
1746694324554.812,166465,1746694324535.844,-52,9,-112
1746694324574.656,166361,1746694324555.719,-64,14,-121
1746694324594.531,166323,1746694324575.563,-52,7,-114
1746694324614.531,166317,1746694324595.406,-52,3,-112
1746694324634.281,166332,1746694324615.312,-45,1,-125
1746694324654.125,166379,1746694324635.156,-41,7,-120
1746694324674.031,166420,1746694324654.969,-41,10,-120
1746694324693.906,166448,1746694324674.906,-52,12,-127
1746694324713.75,166440,1746694324694.781,-42,14,-122
1746694324733.625,166473,1746694324714.656,-42,6,-121
1746694324753.531,166477,1746694324734.531,-52,4,-124
1746694324773.406,166517,1746694324754.406,-45,6,-125
1746694324793.25,166500,1746694324774.281,-49,11,-120
1746694324813.125,166466,1746694324794.219,-40,11,-125
1746694324833.0,166437,1746694324814.0,-49,12,-125
1746694324852.844,166420,1746694324833.875,-41,12,-112
1746694324872.719,166425,1746694324853.719,-42,12,-120
1746694324892.594,166469,1746694324873.625,-52,12,-112
1746694324912.469,166511,1746694324893.469,-52,7,-112
1746694324932.313,166543,1746694324913.344,-41,6,-112
1746694324952.187,166599,1746694324933.219,-40,11,-112
1746694324972.062,166618,1746694324953.094,-32,16,-112
1746694324991.969,166649,1746694324972.969,-50,8,-125
1746694325011.781,166709,1746694324992.844,-49,11,-125
1746694325031.656,166757,1746694325012.719,-44,16,-117
1746694325051.562,166793,1746694325032.562,-52,7,-121
1746694325071.438,166813,1746694325052.438,-47,12,-112
1746694325091.25,166848,1746694325072.2808,-39,9,-122
1746694325111.125,166852,1746694325092.187,-55,7,-112
1746694325130.969,166908,1746694325112.031,-55,9,-112
1746694325150.875,166938,1746694325131.906,-53,8,-113
1746694325170.719,166988,1746694325151.719,-40,12,-112
1746694325190.562,167036,1746694325171.656,-49,9,-116
1746694325210.437,167064,1746694325191.469,-32,9,-121
1746694325230.344,167098,1746694325211.313,-45,7,-121
1746694325250.156,167134,1746694325231.25,-47,12,-118
1746694325270.031,167158,1746694325251.062,-53,15,-112
1746694325290.031,167180,1746694325270.906,-57,7,-122
1746694325309.75,167186,1746694325290.938,-55,7,-116
1746694325329.594,167218,1746694325310.656,-40,15,-114
1746694325349.469,167265,1746694325330.5308,-50,12,-125
1746694325369.312,167335,1746694325350.375,-49,31,-125
1746694325389.156,167367,1746694325370.187,-48,9,-121
1746694325409.031,167348,1746694325390.063,-58,9,-112
1746694325428.844,167355,1746694325409.906,-49,1,-129
1746694325448.75,167396,1746694325429.75,-49,4,-112
1746694325468.594,167487,1746694325449.625,-52,22,-112
1746694325488.469,167545,1746694325469.5,-52,12,-121
1746694325508.344,167564,1746694325489.375,-52,9,-121
1746694325528.25,167555,1746694325509.219,-55,11,-125
1746694325548.062,167535,1746694325529.125,-52,12,-121
1746694325567.906,167511,1746694325548.969,-56,7,-112
1746694325587.781,167443,1746694325568.844,-52,11,-117
1746694325607.656,167297,1746694325588.656,-56,11,-112
1746694325627.531,167118,1746694325608.562,-57,11,-121
1746694325647.375,166909,1746694325628.406,-56,14,-120
1746694325667.25,166763,1746694325648.281,-45,3,-121
1746694325687.125,166722,1746694325668.156,-49,12,-121
1746694325706.969,166714,1746694325688.031,-57,7,-121
1746694325726.844,166717,1746694325707.875,-42,8,-112
1746694325746.781,166724,1746694325727.75,-55,9,-112
1746694325766.563,166738,1746694325747.5942,-46,7,-113
1746694325786.437,166777,1746694325767.469,-49,15,-125
1746694325806.281,166764,1746694325787.375,-37,9,-125
1746694325826.156,166769,1746694325807.188,-42,7,-123
1746694325846.031,166785,1746694325827.063,-48,7,-122
1746694325865.875,166793,1746694325846.875,-47,14,-112
1746694325885.781,166760,1746694325866.812,-53,6,-111
1746694325905.656,166711,1746694325886.688,-40,9,-112
1746694325925.531,166654,1746694325906.531,-40,7,-121
1746694325945.344,166632,1746694325926.5,-52,8,-125
1746694325965.25,166610,1746694325946.281,-52,8,-121
1746694325985.094,166563,1746694325966.125,-48,12,-112
1746694326004.969,166563,1746694325986.0,-48,19,-121
1746694326024.812,166617,1746694326005.875,-52,12,-114
1746694326044.75,166677,1746694326025.719,-40,14,-112
1746694326064.563,166662,1746694326045.563,-45,14,-114
1746694326084.438,166644,1746694326065.469,-52,8,-125
1746694326104.281,166663,1746694326085.312,-33,20,-121
1746694326124.219,166723,1746694326105.219,-42,8,-117
1746694326144.031,166746,1746694326125.094,-41,12,-121
1746694326163.906,166773,1746694326144.906,-39,22,-121
1746694326183.75,166833,1746694326164.812,-40,8,-127
1746694326203.625,166861,1746694326184.656,-41,4,-125
1746694326223.5,166891,1746694326204.5,-48,5,-112
1746694326243.375,166905,1746694326224.406,-53,9,-112
1746694326263.2192,166909,1746694326244.25,-45,7,-112
1746694326283.094,166903,1746694326264.219,-56,11,-122
1746694326302.969,166873,1746694326284.0,-39,11,-121
1746694326322.844,166848,1746694326303.875,-49,8,-121
1746694326342.719,166844,1746694326323.75,-32,6,-114
1746694326362.594,166867,1746694326343.625,-47,8,-112
1746694326382.469,166891,1746694326363.469,-52,4,-112
1746694326402.344,166916,1746694326383.344,-57,15,-121
1746694326422.25,166951,1746694326403.219,-47,7,-112
1746694326442.062,166997,1746694326423.156,-44,9,-121
1746694326461.969,166998,1746694326442.969,-50,6,-116
1746694326481.813,167081,1746694326462.844,-45,9,-112
1746694326501.688,167130,1746694326482.75,-45,16,-121
1746694326521.656,167158,1746694326502.594,-48,14,-112
1746694326541.437,167207,1746694326522.531,-56,8,-121
1746694326561.281,167206,1746694326542.344,-45,23,-113
1746694326581.156,167254,1746694326562.219,-44,6,-112
1746694326601.062,167307,1746694326582.062,-45,6,-120
1746694326620.938,167306,1746694326601.938,-49,8,-112
1746694326640.781,167287,1746694326621.781,-43,4,-116
1746694326660.656,167236,1746694326641.719,-40,12,-121
1746694326680.531,167201,1746694326661.625,-45,4,-121
1746694326700.438,167126,1746694326681.438,-61,4,-114
1746694326720.281,166983,1746694326701.313,-44,9,-112
1746694326740.156,166782,1746694326721.187,-37,9,-121
1746694326760.031,166604,1746694326741.062,-49,8,-112
1746694326779.938,166530,1746694326760.969,-52,9,-115
1746694326799.781,166460,1746694326780.813,-47,12,-112
1746694326819.687,166456,1746694326800.687,-52,8,-125
1746694326839.594,166479,1746694326820.594,-41,8,-112
1746694326859.406,166516,1746694326840.406,-42,8,-122
1746694326879.281,166545,1746694326860.344,-52,10,-121
1746694326899.156,166550,1746694326880.187,-42,11,-121
1746694326919.062,166572,1746694326900.031,-41,7,-112
1746694326938.906,166597,1746694326919.969,-55,12,-121
1746694326958.781,166619,1746694326939.813,-42,8,-122
1746694326978.656,166605,1746694326959.656,-49,12,-112
1746694326998.562,166583,1746694326979.562,-46,14,-112
1746694327018.406,166526,1746694326999.406,-50,7,-120
1746694327038.281,166489,1746694327019.313,-42,0,-112
1746694327058.156,166455,1746694327039.187,-52,8,-121
1746694327078.031,166454,1746694327059.062,-47,9,-125
1746694327097.906,166453,1746694327078.938,-40,9,-121
1746694327117.75,166432,1746694327098.813,-42,9,-121
1746694327137.656,166470,1746694327118.656,-42,12,-112
1746694327157.531,166529,1746694327138.531,-42,5,-112
1746694327177.375,166574,1746694327158.406,-45,7,-119
1746694327197.2808,166595,1746694327178.313,-48,8,-125
1746694327217.156,166609,1746694327198.156,-49,11,-112
1746694327237.031,166632,1746694327218.031,-39,7,-111
1746694327256.969,166662,1746694327237.906,-49,6,-116
1746694327276.781,166684,1746694327257.875,-48,9,-121
1746694327296.656,166751,1746694327277.656,-40,12,-121
1746694327316.531,166757,1746694327297.563,-57,7,-121
1746694327336.531,166781,1746694327317.469,-42,12,-121
1746694327356.313,166802,1746694327337.281,-42,1,-129
1746694327376.187,166853,1746694327357.156,-41,11,-120
1746694327396.031,166853,1746694327377.094,-52,6,-121
1746694327415.938,166859,1746694327396.938,-50,12,-128
1746694327435.844,166907,1746694327416.812,-39,12,-121
1746694327455.687,166925,1746694327436.687,-49,7,-125
1746694327475.563,166941,1746694327456.594,-42,8,-112
1746694327495.469,166965,1746694327476.5,-51,8,-112
1746694327515.312,166981,1746694327496.344,-48,11,-121
1746694327535.219,167019,1746694327516.219,-49,15,-112
1746694327555.094,167051,1746694327536.125,-42,7,-125
1746694327574.969,167094,1746694327555.969,-52,7,-129
1746694327594.844,167135,1746694327575.875,-61,8,-121
1746694327614.719,167135,1746694327595.687,-44,11,-112
1746694327634.594,167145,1746694327615.625,-46,13,-119
1746694327654.5,167185,1746694327635.5,-44,8,-122
1746694327674.375,167209,1746694327655.375,-45,6,-133
1746694327694.219,167221,1746694327675.281,-36,11,-121
1746694327714.125,167224,1746694327695.125,-40,3,-125
1746694327734.0,167236,1746694327715.031,-57,8,-121
1746694327753.906,167283,1746694327734.906,-57,35,-114
1746694327773.75,167279,1746694327754.813,-44,9,-125
1746694327793.656,167277,1746694327774.656,-43,11,-112
1746694327813.531,167210,1746694327794.531,-52,7,-105
1746694327833.406,167171,1746694327814.437,-43,6,-125
1746694327853.313,167077,1746694327834.313,-46,8,-125
1746694327873.219,166903,1746694327854.219,-41,9,-110
1746694327893.094,166691,1746694327874.125,-40,7,-122
1746694327912.937,166499,1746694327893.969,-48,15,-112
1746694327932.813,166394,1746694327913.875,-41,6,-113
1746694327952.719,166293,1746694327933.688,-45,6,-112
1746694327972.594,166263,1746694327953.562,-41,7,-120
1746694327992.4368,166270,1746694327973.5,-49,11,-113
1746694328012.313,166285,1746694327993.344,-48,7,-125
1746694328032.188,166297,1746694328013.2192,-56,7,-121
1746694328052.062,166280,1746694328033.062,-45,15,-120
1746694328071.937,166263,1746694328053.0,-52,8,-122
1746694328091.781,166276,1746694328072.875,-48,12,-112
1746694328111.656,166278,1746694328092.656,-40,9,-114
1746694328131.531,166239,1746694328112.531,-52,7,-112
1746694328151.406,166177,1746694328132.437,-28,14,-133
1746694328171.313,166160,1746694328152.313,-41,6,-131
1746694328191.188,166130,1746694328172.188,-40,3,-112
1746694328211.031,166081,1746694328192.094,-52,14,-117
