Local: ,2025-06-12 00:00:00+02:00,tz_sec ,7200
Linux Epoch (ms):,1749679200000.0
PPG Timestamp,PPG,ADXL Timestamp,X,Y,Z
1749725885366.9382,197250,1749725885348.031,272,60,72
1749725885386.781,197282,1749725885367.875,263,63,81
1749725885406.719,197290,1749725885387.75,264,67,83
1749725885426.5,197266,1749725885407.531,262,55,84
1749725885446.344,197218,1749725885427.438,268,60,83
1749725885466.188,197150,1749725885447.25,265,64,87
1749725885486.031,197074,1749725885467.125,273,57,77
1749725885505.906,197026,1749725885486.969,271,58,79
1749725885525.781,196990,1749725885506.813,271,63,83
1749725885545.594,196978,1749725885526.781,265,64,87
1749725885565.438,196982,1749725885546.562,268,56,86
1749725885585.312,196951,1749725885566.406,271,62,79
1749725885605.156,196950,1749725885586.219,276,67,86
1749725885625.0,196915,1749725885606.063,271,67,87
1749725885644.813,196902,1749725885625.938,268,65,86
1749725885664.688,196869,1749725885645.781,259,65,94
1749725885684.531,196855,1749725885665.594,271,66,91
1749725885704.375,196817,1749725885685.437,271,60,96
1749725885724.188,196777,1749725885705.281,254,70,92
1749725885744.1558,196749,1749725885725.125,264,63,91
1749725885763.906,196707,1749725885744.969,268,59,94
1749725885783.75,196703,1749725885764.781,268,60,96
1749725885803.562,196701,1749725885784.656,269,67,86
1749725885823.438,196688,1749725885804.531,272,64,96
1749725885843.281,196692,1749725885824.344,257,68,96
1749725885863.125,196721,1749725885844.187,263,70,96
1749725885882.969,196759,1749725885864.125,264,67,97
1749725885902.812,196819,1749725885883.906,268,68,99
1749725885922.688,196870,1749725885903.75,259,67,87
1749725885942.531,196948,1749725885923.563,268,68,96
1749725885962.469,196970,1749725885943.437,266,65,87
1749725885982.219,196845,1749725885963.406,264,70,96
1749725886002.063,196539,1749725885983.125,259,70,96
1749725886021.938,196101,1749725886002.969,271,71,99
1749725886041.75,195564,1749725886022.844,263,64,96
1749725886061.594,195022,1749725886042.719,270,65,92
1749725886081.594,194509,1749725886062.531,269,67,98
1749725886101.344,194077,1749725886082.375,268,64,95
1749725886121.156,193762,1749725886102.25,268,71,96
1749725886141.0,193506,1749725886122.094,270,67,92
1749725886160.875,193321,1749725886141.906,270,65,96
1749725886180.75,193172,1749725886161.781,268,57,92
1749725886200.563,193058,1749725886181.6558,254,65,98
1749725886220.438,192977,1749725886201.5,265,68,99
1749725886240.312,192961,1749725886221.344,271,62,96
1749725886260.156,192931,1749725886241.25,263,70,90
1749725886280.0,192910,1749725886261.063,255,67,97
1749725886299.906,192862,1749725886280.969,270,70,92
1749725886319.75,192784,1749725886300.812,259,65,99
1749725886339.625,192711,1749725886320.656,262,71,94
1749725886359.438,192599,1749725886340.531,272,67,95
1749725886379.313,192504,1749725886360.406,273,62,94
1749725886399.187,192417,1749725886380.25,267,70,97
1749725886419.062,192334,1749725886400.094,273,63,95
1749725886438.875,192288,1749725886419.938,267,65,89
1749725886458.75,192255,1749725886439.813,257,66,92
1749725886478.594,192268,1749725886459.656,255,64,102
1749725886498.469,192282,1749725886479.5,267,64,99
1749725886518.312,192314,1749725886499.406,260,63,96
1749725886538.156,192374,1749725886519.25,262,68,86
1749725886558.031,192444,1749725886539.062,260,67,96
1749725886577.906,192495,1749725886558.937,263,67,96
1749725886597.719,192562,1749725886578.813,262,64,94
1749725886617.563,192622,1749725886598.719,268,64,99
1749725886637.5,192712,1749725886618.469,264,65,94
1749725886657.281,192797,1749725886638.344,263,63,88
1749725886677.125,192874,1749725886658.187,268,65,88
1749725886697.063,192988,1749725886678.063,267,70,96
1749725886716.813,193088,1749725886697.969,256,67,99
1749725886736.688,193164,1749725886717.75,263,63,96
1749725886756.531,193253,1749725886737.594,268,67,96
1749725886776.375,193361,1749725886757.469,271,87,96
1749725886796.281,193438,1749725886777.313,273,63,96
1749725886816.156,193548,1749725886797.156,265,64,97
1749725886835.938,193648,1749725886817.031,268,61,105
1749725886855.812,193759,1749725886836.875,259,63,96
1749725886875.656,193893,1749725886856.75,252,65,102
1749725886895.531,193994,1749725886876.563,262,64,87
1749725886915.375,194095,1749725886896.437,267,65,96
1749725886935.281,194097,1749725886916.344,255,63,94
1749725886955.062,193911,1749725886936.188,268,63,99
1749725886974.938,193550,1749725886955.969,263,66,99
1749725886994.781,193096,1749725886975.844,269,67,99
1749725887014.625,192574,1749725886995.687,260,67,96
1749725887034.469,192069,1749725887015.562,266,67,99
1749725887054.312,191682,1749725887035.5,271,67,92
1749725887074.25,191405,1749725887055.188,270,69,104
1749725887094.0,191141,1749725887075.187,249,65,100
1749725887113.844,190993,1749725887094.937,263,64,96
1749725887133.687,190883,1749725887114.75,268,65,99
1749725887153.625,190832,1749725887134.625,267,67,95
1749725887173.375,190792,1749725887154.469,270,60,112
1749725887193.219,190779,1749725887174.2808,264,64,103
1749725887213.062,190800,1749725887194.156,259,73,98
1749725887232.937,190813,1749725887213.969,268,67,96
1749725887252.781,190780,1749725887233.844,259,65,102
1749725887272.594,190765,1749725887253.688,265,65,96
1749725887292.469,190715,1749725887273.531,264,67,96
1749725887312.3118,190650,1749725887293.375,255,65,99
1749725887332.125,190595,1749725887313.25,254,68,95
1749725887352.0,190535,1749725887333.063,259,70,99
1749725887371.906,190499,1749725887352.906,268,67,96
1749725887391.719,190503,1749725887372.781,264,64,96
1749725887411.531,190556,1749725887392.625,267,63,96
1749725887431.375,190561,1749725887412.469,267,63,94
1749725887451.219,190661,1749725887432.313,249,79,97
1749725887471.094,190723,1749725887452.156,252,70,95
1749725887490.906,190817,1749725887471.969,264,67,96
1749725887510.75,190919,1749725887491.844,270,64,95
1749725887530.594,191016,1749725887511.688,264,67,96
1749725887550.469,191114,1749725887531.531,265,69,95
1749725887570.312,191245,1749725887551.375,271,60,92
1749725887590.125,191351,1749725887571.187,268,63,102
1749725887609.969,191482,1749725887591.063,275,60,96
1749725887629.844,191604,1749725887610.875,276,64,95
1749725887649.719,191695,1749725887630.75,264,71,92
1749725887669.531,191832,1749725887650.625,260,70,97
1749725887689.375,191952,1749725887670.5,257,76,95
1749725887709.25,192072,1749725887690.281,268,68,96
1749725887729.125,192226,1749725887710.188,283,70,97
1749725887748.969,192386,1749725887730.0,270,67,100
1749725887768.812,192521,1749725887749.875,263,64,96
1749725887788.656,192673,1749725887769.719,256,63,95
1749725887808.5,192805,1749725887789.563,268,65,102
1749725887828.344,192960,1749725887809.406,271,63,91
1749725887848.187,193111,1749725887829.281,270,55,95
1749725887868.062,193259,1749725887849.094,263,67,99
1749725887887.906,193421,1749725887868.969,265,65,95
1749725887907.719,193576,1749725887888.844,268,68,96
1749725887927.594,193739,1749725887908.625,265,68,96
1749725887947.437,193886,1749725887928.5,258,70,96
1749725887967.281,193997,1749725887948.344,278,65,99
1749725887987.156,194166,1749725887968.219,264,65,97
1749725888006.969,194319,1749725887988.094,259,63,100
1749725888026.813,194464,1749725888007.875,270,68,99
1749725888046.656,194611,1749725888027.75,259,68,96
1749725888066.469,194774,1749725888047.594,263,67,96
1749725888086.344,194937,1749725888067.406,268,68,96
1749725888106.156,195044,1749725888087.281,265,68,92
1749725888126.031,195018,1749725888107.062,264,51,96
1749725888145.844,194782,1749725888126.937,259,68,103
1749725888165.687,194412,1749725888146.781,268,67,99
1749725888185.531,193952,1749725888166.625,255,65,96
1749725888205.375,193468,1749725888186.438,270,65,94
1749725888225.188,193023,1749725888206.281,260,65,103
1749725888245.031,192684,1749725888226.094,265,64,103
1749725888264.875,192437,1749725888245.969,255,62,103
1749725888284.688,192269,1749725888265.781,270,67,96
1749725888304.563,192179,1749725888285.594,263,64,99
1749725888324.5,192112,1749725888305.469,268,63,96
1749725888344.219,192105,1749725888325.438,251,71,99
1749725888364.062,192091,1749725888345.125,271,65,96
1749725888383.938,192123,1749725888364.969,267,65,96
1749725888403.75,192165,1749725888384.844,259,64,100
1749725888423.594,192172,1749725888404.687,268,68,96
1749725888443.437,192153,1749725888424.5,258,63,96
1749725888463.281,192114,1749725888444.344,265,68,93
1749725888483.094,192047,1749725888464.188,267,64,96
1749725888502.938,191992,1749725888484.062,255,60,102
1749725888522.812,191931,1749725888503.875,259,67,87
1749725888542.656,191897,1749725888523.656,268,71,96
1749725888562.5,191878,1749725888543.563,259,71,92
1749725888582.344,191886,1749725888563.438,262,70,89
1749725888602.188,191926,1749725888583.281,263,67,91
1749725888622.031,191963,1749725888603.094,252,63,94
1749725888641.906,192034,1749725888622.937,260,64,100
1749725888661.75,192129,1749725888642.781,264,64,97
1749725888681.531,192229,1749725888662.688,265,65,96
1749725888701.406,192302,1749725888682.437,272,64,112
1749725888721.25,192406,1749725888702.312,268,65,102
1749725888741.094,192540,1749725888722.125,269,67,96
1749725888760.969,192626,1749725888742.031,270,63,96
1749725888780.781,192770,1749725888761.844,264,68,103
1749725888800.656,192908,1749725888781.719,255,63,113
1749725888820.5618,193021,1749725888801.594,268,67,95
1749725888840.312,193170,1749725888821.406,265,71,94
1749725888860.156,193323,1749725888841.219,260,70,95
1749725888880.0,193444,1749725888861.063,262,64,96
1749725888899.781,193599,1749725888880.906,255,67,102
1749725888919.656,193732,1749725888900.812,259,68,96
1749725888939.5,193866,1749725888920.563,263,65,99
1749725888959.344,194056,1749725888940.406,271,62,95
1749725888979.156,194169,1749725888960.25,268,73,103
1749725888999.0,194338,1749725888980.125,268,63,102
1749725889018.812,194496,1749725888999.937,255,57,95
1749725889038.656,194637,1749725889019.719,270,64,104
1749725889058.531,194806,1749725889039.594,263,67,98
1749725889078.3132,194973,1749725889059.406,264,63,92
1749725889098.156,195133,1749725889079.25,263,68,92
1749725889117.969,195311,1749725889099.031,268,68,99
1749725889137.844,195447,1749725889118.906,263,68,96
1749725889157.625,195606,1749725889138.719,260,67,96
1749725889177.469,195787,1749725889158.563,251,67,99
1749725889197.313,195982,1749725889178.375,263,68,97
1749725889217.156,196179,1749725889198.219,260,60,102
1749725889236.969,196367,1749725889218.031,267,67,99
1749725889256.813,196450,1749725889237.875,259,64,99
1749725889276.656,196325,1749725889257.781,263,63,96
1749725889296.531,196048,1749725889277.594,272,70,95
1749725889316.375,195635,1749725889297.406,267,64,103
1749725889336.1868,195156,1749725889317.313,264,63,94
1749725889356.031,194727,1749725889337.156,272,71,99
1749725889375.938,194361,1749725889356.938,268,70,103
1749725889395.75,194088,1749725889376.812,268,72,96
1749725889415.594,193900,1749725889396.656,268,75,95
1749725889435.469,193770,1749725889416.5,268,71,99
1749725889455.281,193679,1749725889436.375,263,64,102
1749725889475.156,193651,1749725889456.219,259,66,104
1749725889494.969,193626,1749725889476.062,264,63,102
1749725889514.844,193638,1749725889495.938,262,65,99
1749725889534.719,193661,1749725889515.781,255,66,102
1749725889554.563,193671,1749725889535.625,252,64,107
1749725889574.375,193687,1749725889555.469,259,67,103
1749725889594.25,193669,1749725889575.281,265,65,99
1749725889614.062,193648,1749725889595.156,255,63,98
1749725889633.938,193596,1749725889615.0,252,67,99
1749725889653.75,193542,1749725889634.844,262,64,102
1749725889673.625,193474,1749725889654.687,263,63,99
1749725889693.437,193453,1749725889674.531,268,66,95
1749725889713.344,193452,1749725889694.375,270,64,95
1749725889733.188,193453,1749725889714.219,269,64,96
1749725889753.0,193488,1749725889734.094,263,78,96
1749725889772.844,193533,1749725889753.906,270,63,98
1749725889792.687,193644,1749725889773.781,263,72,96
1749725889812.563,193689,1749725889793.594,265,65,95
1749725889832.5,193783,1749725889813.5,260,67,99
1749725889852.25,193886,1749725889833.344,260,71,96
1749725889872.125,193993,1749725889853.187,268,65,94
1749725889891.937,194097,1749725889873.031,271,63,95
1749725889911.75,194220,1749725889892.875,263,63,96
1749725889931.625,194364,1749725889912.688,264,72,96
1749725889951.5,194490,1749725889932.531,268,68,95
1749725889971.344,194628,1749725889952.406,272,67,92
1749725889991.156,194766,1749725889972.219,268,65,104
1749725890011.031,194910,1749725889992.125,263,67,99
1749725890030.875,195062,1749725890011.937,279,70,97
1749725890050.75,195215,1749725890031.781,268,70,97
1749725890070.5618,195348,1749725890051.688,271,64,95
1749725890090.406,195511,1749725890071.531,255,63,87
1749725890110.281,195647,1749725890091.3442,263,70,95
1749725890130.156,195791,1749725890111.187,260,65,99
1749725890149.969,195942,1749725890131.062,270,64,99
1749725890169.844,196095,1749725890150.938,267,65,96
1749725890189.688,196252,1749725890170.719,268,63,98
1749725890209.531,196420,1749725890190.625,265,60,96
1749725890229.375,196569,1749725890210.437,272,64,95
1749725890249.219,196733,1749725890230.313,265,67,92
1749725890269.094,196881,1749725890250.125,252,67,96
1749725890288.969,197049,1749725890269.969,264,68,99
1749725890308.812,197222,1749725890289.844,270,63,97
1749725890328.656,197363,1749725890309.719,265,64,97
1749725890348.531,197538,1749725890329.563,270,67,94
1749725890368.344,197686,1749725890349.438,272,64,92
1749725890388.188,197864,1749725890369.281,263,64,101
1749725890408.094,197995,1749725890389.094,268,67,97
1749725890427.875,198140,1749725890408.937,271,76,97
1749725890447.75,198156,1749725890428.813,268,63,97
1749725890467.563,197990,1749725890448.688,268,63,96
1749725890487.437,197679,1749725890468.531,262,68,95
1749725890507.281,197235,1749725890488.344,268,65,92
1749725890527.125,196801,1749725890508.188,271,64,99
1749725890546.969,196390,1749725890528.031,268,65,102
1749725890566.844,196031,1749725890547.906,254,65,103
1749725890586.687,195792,1749725890567.781,259,67,102
1749725890606.531,195627,1749725890587.594,256,64,99
1749725890626.375,195502,1749725890607.438,265,63,97
1749725890646.25,195423,1749725890627.313,264,64,99
1749725890666.063,195371,1749725890647.125,266,68,97
1749725890685.937,195349,1749725890666.969,270,68,103
1749725890705.781,195370,1749725890686.844,276,72,96
1749725890725.625,195398,1749725890706.688,270,70,97
1749725890745.469,195396,1749725890726.531,265,66,99
1749725890765.281,195384,1749725890746.375,268,71,88
1749725890785.156,195320,1749725890766.219,268,67,99
1749725890804.9368,195250,1749725890786.063,263,59,94
1749725890824.813,195162,1749725890805.875,267,63,91
1749725890844.656,195061,1749725890825.7192,263,62,96
1749725890864.5,195002,1749725890845.562,263,67,98
1749725890884.344,194921,1749725890865.469,267,67,95
1749725890904.187,194884,1749725890885.281,263,67,95
1749725890924.031,194855,1749725890905.094,264,64,101
1749725890943.875,194853,1749725890924.937,264,63,96
1749725890963.812,194883,1749725890944.812,259,65,102
1749725890983.531,194905,1749725890964.75,260,67,99
1749725891003.406,194938,1749725890984.438,270,67,104
1749725891023.25,194997,1749725891004.313,271,64,103
1749725891043.063,195080,1749725891024.187,247,78,103
1749725891062.937,195161,1749725891044.031,264,64,95
1749725891082.844,195252,1749725891063.812,268,70,99
1749725891102.656,195345,1749725891083.719,265,63,104
1749725891122.5,195437,1749725891103.625,263,71,95
1749725891142.344,195551,1749725891123.437,251,71,96
1749725891162.187,195657,1749725891143.25,271,62,96
1749725891182.062,195733,1749725891163.125,265,64,95
1749725891201.875,195880,1749725891182.969,271,67,87
1749725891221.75,196005,1749725891202.812,271,66,99
1749725891241.594,196127,1749725891222.656,263,70,98
1749725891261.437,196258,1749725891242.5,259,63,103
1749725891281.281,196405,1749725891262.375,259,65,99
1749725891301.156,196530,1749725891282.219,259,64,98
1749725891321.0,196658,1749725891302.094,272,63,103
1749725891340.844,196778,1749725891321.906,257,64,104
1749725891360.656,196908,1749725891341.75,259,65,96
1749725891380.531,197057,1749725891361.594,259,87,99
1749725891400.375,197221,1749725891381.438,268,67,97
1749725891420.219,197351,1749725891401.281,267,65,102
1749725891440.094,197491,1749725891421.156,268,60,124
1749725891459.906,197484,1749725891441.0,268,64,103
1749725891479.781,197354,1749725891460.875,259,67,100
1749725891499.625,197056,1749725891480.687,252,70,96
1749725891519.5,196648,1749725891500.531,270,63,94
1749725891539.3118,196186,1749725891520.438,260,68,95
1749725891559.156,195757,1749725891540.25,255,65,97
1749725891579.0,195374,1749725891560.0942,268,64,98
1749725891598.844,195077,1749725891579.906,263,66,102
1749725891618.687,194875,1749725891599.75,271,76,98
1749725891638.594,194713,1749725891619.656,265,65,100
1749725891658.375,194628,1749725891639.5,264,62,97
1749725891678.219,194561,1749725891659.281,260,63,103
1749725891698.062,194542,1749725891679.187,255,66,102
1749725891717.875,194538,1749725891698.969,259,63,96
1749725891737.75,194557,1749725891718.75,269,60,97
1749725891757.594,194589,1749725891738.688,255,63,106
1749725891777.406,194588,1749725891758.469,268,64,87
1749725891797.281,194575,1749725891778.375,252,64,106
1749725891817.094,194544,1749725891798.219,262,63,95
1749725891836.937,194475,1749725891818.0,265,65,99
1749725891856.781,194424,1749725891837.875,260,70,94
1749725891876.625,194352,1749725891857.687,268,68,96
1749725891896.594,194306,1749725891877.562,255,63,97
1749725891916.375,194325,1749725891897.406,262,68,95
1749725891936.156,194330,1749725891917.281,252,67,99
1749725891956.0,194356,1749725891937.063,267,63,100
1749725891975.844,194394,1749725891956.937,270,67,103
1749725891995.719,194458,1749725891976.75,263,60,102
1749725892015.562,194515,1749725891996.625,260,67,99
1749725892035.469,194590,1749725892016.438,252,71,96
1749725892055.219,194675,1749725892036.313,262,55,94
1749725892075.063,194790,1749725892056.125,263,64,99
1749725892094.937,194895,1749725892075.969,260,66,103
1749725892114.75,194969,1749725892095.813,271,65,104
1749725892134.594,195097,1749725892115.688,259,67,103
1749725892154.438,195175,1749725892135.5,263,67,100
1749725892174.2808,195309,1749725892155.437,259,67,103
1749725892194.125,195432,1749725892175.187,268,65,103
1749725892213.937,195547,1749725892195.0632,262,65,102
1749725892233.813,195678,1749725892214.844,263,63,96
1749725892253.812,195798,1749725892234.719,259,67,102
1749725892273.469,195934,1749725892254.687,263,67,99
1749725892293.344,196017,1749725892274.406,260,65,95
1749725892313.156,196158,1749725892294.25,257,63,94
1749725892333.0,196318,1749725892314.063,280,71,96
1749725892352.844,196455,1749725892333.937,270,67,96
1749725892372.656,196578,1749725892353.75,269,68,100
1749725892392.5,196718,1749725892373.625,268,78,102
1749725892412.406,196843,1749725892393.406,265,63,96
1749725892432.25,196982,1749725892413.313,259,63,100
1749725892452.063,197134,1749725892433.156,258,67,108
1749725892471.937,197247,1749725892452.969,265,68,99
1749725892491.781,197399,1749725892472.844,262,67,100
1749725892511.625,197527,1749725892492.688,263,65,87
1749725892531.4382,197578,1749725892512.5,265,65,96
1749725892551.281,197422,1749725892532.344,270,62,97
1749725892571.125,197142,1749725892552.187,268,65,99
1749725892590.969,196727,1749725892572.031,268,64,96
1749725892610.781,196270,1749725892591.875,268,61,96
1749725892630.625,195823,1749725892611.719,268,67,108
1749725892650.5,195446,1749725892631.562,259,65,102
1749725892670.344,195157,1749725892651.375,263,73,96
1749725892690.187,194951,1749725892671.25,256,70,99
1749725892710.094,194810,1749725892691.125,262,64,98
1749725892729.875,194693,1749725892710.938,270,63,114
1749725892749.719,194625,1749725892730.75,263,64,99
1749725892769.531,194592,1749725892750.625,260,71,97
1749725892789.375,194583,1749725892770.406,264,64,96
1749725892809.25,194575,1749725892790.344,265,64,102
1749725892829.094,194579,1749725892810.156,254,67,104
1749725892848.937,194566,1749725892830.0,262,67,98
1749725892868.781,194536,1749725892849.875,262,67,104
1749725892888.625,194463,1749725892869.688,265,64,99
1749725892908.469,194392,1749725892889.531,254,68,96
1749725892928.406,194294,1749725892909.375,262,67,96
1749725892948.156,194200,1749725892929.312,268,67,96
1749725892968.031,194112,1749725892949.125,260,64,104
1749725892987.906,194050,1749725892968.9382,263,68,102
1749725893007.75,194025,1749725892988.781,263,79,96
1749725893027.562,194007,1749725893008.656,271,65,102
1749725893047.375,194017,1749725893028.5,272,68,102
1749725893067.25,194030,1749725893048.281,272,64,104
1749725893087.094,194065,1749725893068.156,268,62,96
1749725893106.906,194142,1749725893088.0,271,68,86
1749725893126.781,194194,1749725893107.875,271,67,96
1749725893146.625,194233,1749725893127.687,254,67,103
1749725893166.5,194274,1749725893147.531,267,68,100
1749725893186.313,194348,1749725893167.438,263,63,92
1749725893206.156,194412,1749725893187.25,264,67,99
1749725893226.0,194461,1749725893207.062,267,67,107
1749725893245.844,194514,1749725893226.906,258,76,102
1749725893265.688,194572,1749725893246.75,255,68,98
1749725893285.531,194643,1749725893266.625,279,64,102
1749725893305.375,194689,1749725893286.469,265,63,104
1749725893325.25,194770,1749725893306.281,265,67,100
1749725893345.031,194846,1749725893326.125,257,63,96
1749725893364.906,194921,1749725893345.969,271,68,103
1749725893384.75,195002,1749725893365.813,267,68,99
1749725893404.625,195182,1749725893385.656,259,65,103
1749725893424.437,195182,1749725893405.531,259,65,103
1749725893464.0,146512,1749725893445.188,259,57,98
1749725893483.844,146599,1749725893465.094,260,63,95
1749725893503.688,146663,1749725893484.906,271,63,95
1749725893523.5,146720,1749725893504.75,281,61,102
1749725893543.406,146680,1749725893524.594,268,62,102
1749725893563.219,146494,1749725893544.4692,252,62,103
1749725893583.063,146245,1749725893564.25,268,63,102
1749725893602.875,145904,1749725893584.125,259,61,102
1749725893622.75,145586,1749725893603.969,263,59,111
1749725893642.594,145291,1749725893623.781,260,64,106
1749725893662.438,145038,1749725893643.625,262,64,95
1749725893682.281,144890,1749725893663.5,259,65,97
1749725893702.094,144777,1749725893683.344,265,63,99
1749725893721.937,144711,1749725893703.156,260,62,97
1749725893741.781,144680,1749725893723.0,255,65,104
1749725893761.719,144641,1749725893742.875,254,63,97
1749725893781.4382,144635,1749725893762.687,268,80,88
1749725893801.344,144667,1749725893782.531,264,63,103
1749725893821.219,144701,1749725893802.406,269,61,102
1749725893841.063,144712,1749725893822.2808,268,60,103
1749725893860.875,144743,1749725893842.094,268,64,103
1749725893880.719,144723,1749725893861.969,270,60,98
1749725893900.562,144707,1749725893881.781,271,67,107
1749725893920.406,144671,1749725893901.656,271,63,89
1749725893940.219,144640,1749725893921.5,259,59,103
1749725893960.063,144600,1749725893941.281,272,64,89
1749725893979.938,144603,1749725893961.125,252,57,110
1749725893999.8118,144582,1749725893981.0,249,60,101
1749725894019.594,144581,1749725894000.844,260,66,98
1749725894039.438,144586,1749725894020.688,254,63,109
1749725894059.281,144609,1749725894040.531,255,55,114
1749725894079.156,144671,1749725894060.344,255,63,111
1749725894098.969,144724,1749725894080.219,260,67,108
1749725894118.812,144795,1749725894100.063,264,63,115
1749725894138.656,144921,1749725894119.906,260,61,122
1749725894158.531,145092,1749725894139.719,255,62,120
1749725894178.375,145273,1749725894159.562,263,55,109
1749725894198.187,145456,1749725894179.4382,256,59,116
1749725894218.062,145578,1749725894199.25,263,55,115
1749725894237.875,145693,1749725894219.156,263,57,113
1749725894257.719,145803,1749725894238.937,267,59,118
1749725894277.531,145845,1749725894258.781,260,57,118
1749725894297.406,145877,1749725894278.625,265,67,114
1749725894317.25,145902,1749725894298.469,254,62,127
1749725894337.094,145919,1749725894318.3442,255,53,134
1749725894356.938,145920,1749725894338.156,260,63,139
1749725894376.781,145944,1749725894358.063,255,60,130
1749725894396.625,145944,1749725894377.813,263,51,122
1749725894416.5,145962,1749725894397.656,259,59,115
1749725894436.313,145981,1749725894417.562,259,59,132
1749725894456.156,146005,1749725894437.406,248,64,143
1749725894476.0,146068,1749725894457.25,246,59,140
1749725894495.875,146081,1749725894477.063,262,56,138
1749725894515.688,146100,1749725894496.906,254,59,139
1749725894535.531,146062,1749725894516.781,255,60,143
1749725894555.469,145939,1749725894536.594,252,62,151
1749725894575.219,145710,1749725894556.531,264,59,151
1749725894595.031,145459,1749725894576.281,260,59,127
1749725894615.0,145183,1749725894596.1558,255,55,135
1749725894634.719,144931,1749725894615.937,259,59,120
1749725894654.562,144722,1749725894635.781,240,55,118
1749725894674.406,144594,1749725894655.625,255,55,118
1749725894694.219,144521,1749725894675.469,260,52,95
1749725894714.063,144477,1749725894695.312,254,60,110
1749725894733.938,144501,1749725894715.125,263,56,106
1749725894753.781,144567,1749725894735.0,263,63,103
1749725894773.594,144629,1749725894754.875,270,60,103
1749725894793.437,144687,1749725894774.688,249,58,103
1749725894813.25,144681,1749725894794.5,249,59,99
1749725894833.188,144576,1749725894814.344,254,55,102
1749725894852.969,144451,1749725894834.25,284,63,115
1749725894872.75,144308,1749725894854.0,265,59,113
1749725894892.594,144157,1749725894873.813,263,62,103
1749725894912.438,143995,1749725894893.687,263,59,98
1749725894932.281,143818,1749725894913.531,267,57,76
1749725894952.156,143637,1749725894933.344,275,63,83
1749725894971.937,143499,1749725894953.156,268,72,95
1749725894991.812,143409,1749725894973.0,264,62,88
1749725895011.656,143379,1749725894992.875,278,56,87
1749725895031.469,143348,1749725895012.719,273,59,86
1749725895051.344,143355,1749725895032.531,264,63,78
1749725895071.156,143398,1749725895052.375,263,64,76
1749725895091.0,143543,1749725895072.219,266,57,79
1749725895110.844,143682,1749725895092.094,275,57,76
1749725895130.656,143825,1749725895111.937,270,51,71
1749725895150.531,143908,1749725895131.719,260,56,65
1749725895170.344,143913,1749725895151.594,254,51,73
1749725895190.187,143897,1749725895171.438,270,51,71
1749725895210.0,143913,1749725895191.281,260,55,79
1749725895229.875,143942,1749725895211.062,254,53,70
1749725895249.687,143983,1749725895230.906,243,70,57
1749725895269.531,143964,1749725895250.75,265,56,70
1749725895289.344,143979,1749725895270.594,287,62,62
1749725895309.156,143986,1749725895290.406,281,53,86
1749725895329.0,143941,1749725895310.219,271,57,75
1749725895348.844,143898,1749725895330.062,265,55,72
1749725895368.656,143841,1749725895349.906,268,59,78
1749725895388.5,143822,1749725895369.75,267,57,78
1749725895408.313,143823,1749725895389.563,270,61,67
1749725895428.156,143829,1749725895409.344,279,61,58
1749725895447.969,143838,1749725895429.25,268,55,68
1749725895467.844,143900,1749725895449.063,255,60,71
1749725895487.656,143888,1749725895468.844,269,56,71
1749725895507.5,143825,1749725895488.688,273,60,70
1749725895527.344,143636,1749725895508.562,263,49,67
1749725895547.188,143333,1749725895528.406,257,62,52
1749725895567.031,142961,1749725895548.25,263,64,66
1749725895586.875,142598,1749725895568.063,268,64,56
1749725895606.719,142297,1749725895587.938,265,63,67
1749725895626.531,142054,1749725895607.781,275,63,90
1749725895646.375,141920,1749725895627.594,276,60,92
1749725895666.219,141882,1749725895647.469,264,63,86
1749725895686.062,141886,1749725895667.281,262,63,83
1749725895705.875,141902,1749725895687.125,275,63,75
1749725895725.719,141964,1749725895707.0,271,55,64
1749725895745.563,142083,1749725895726.781,265,61,70
1749725895765.406,142284,1749725895746.625,260,60,76
1749725895785.219,142493,1749725895766.469,260,63,82
1749725895805.063,142746,1749725895786.313,256,61,79
1749725895824.906,142936,1749725895806.125,265,58,60
1749725895844.719,143103,1749725895825.969,264,56,82
1749725895864.562,143216,1749725895845.813,255,67,80
1749725895884.406,143332,1749725895865.656,265,59,88
1749725895904.25,143478,1749725895885.438,266,64,88
1749725895924.094,143603,1749725895905.281,263,47,96
1749725895943.938,143762,1749725895925.156,273,58,73
1749725895963.781,143940,1749725895945.0,278,55,83
1749725895983.656,144140,1749725895964.844,260,59,80
1749725896003.5,144334,1749725895984.719,263,63,67
1749725896023.344,144506,1749725896004.562,265,64,67
1749725896043.156,144694,1749725896024.437,254,63,74
1749725896063.031,144859,1749725896044.25,252,67,74
1749725896082.875,145014,1749725896064.125,263,63,78
1749725896102.75,145183,1749725896083.9692,267,70,87
1749725896122.5942,145323,1749725896103.812,276,63,83
1749725896142.406,145467,1749725896123.656,284,64,71
1749725896162.25,145617,1749725896143.469,275,57,77
1749725896182.219,145783,1749725896163.313,273,65,74
1749725896201.938,145951,1749725896183.156,259,96,72
1749725896221.781,146116,1749725896203.031,255,59,83
1749725896241.625,146263,1749725896222.812,268,64,67
1749725896261.437,146419,1749725896242.688,257,56,63
1749725896281.281,146515,1749725896262.531,263,63,79
1749725896301.125,146654,1749725896282.344,268,64,70
1749725896320.969,146786,1749725896302.187,270,67,83
1749725896340.812,146933,1749725896322.031,271,62,83
1749725896360.625,147097,1749725896341.875,273,64,79
1749725896380.438,147220,1749725896361.656,268,65,79
1749725896400.25,147287,1749725896381.5,270,61,83
1749725896420.156,147238,1749725896401.344,262,60,79
1749725896439.969,147087,1749725896421.156,270,64,77
1749725896459.781,146839,1749725896441.031,270,59,79
1749725896479.625,146567,1749725896460.875,257,51,83
1749725896499.5,146329,1749725896480.719,259,63,83
1749725896519.437,146113,1749725896500.594,262,62,83
1749725896539.219,145977,1749725896520.438,262,71,80
1749725896559.062,145900,1749725896540.281,259,62,91
1749725896578.906,145886,1749725896560.125,267,63,87
1749725896598.781,145866,1749725896579.969,275,63,88
1749725896618.594,145818,1749725896599.844,280,63,88
1749725896638.437,145771,1749725896619.656,268,60,83
1749725896658.313,145776,1749725896639.594,255,63,79
1749725896678.125,145720,1749725896659.375,255,63,76
1749725896697.969,145660,1749725896679.187,271,62,78
1749725896717.812,145588,1749725896699.063,271,63,75
1749725896737.656,145499,1749725896718.875,270,62,81
1749725896757.5,145412,1749725896738.719,260,63,82
1749725896777.344,145325,1749725896758.562,268,60,71
1749725896797.188,145225,1749725896778.406,268,63,83
1749725896817.031,145208,1749725896798.25,272,63,79
1749725896836.875,145176,1749725896818.094,264,67,71
1749725896856.813,145161,1749725896837.938,267,64,83
1749725896876.563,145172,1749725896857.812,264,76,73
1749725896896.406,145207,1749725896877.625,259,71,78
1749725896916.25,145245,1749725896897.469,284,65,78
1749725896936.125,145294,1749725896917.313,272,57,63
1749725896955.906,145353,1749725896937.125,272,64,63
1749725896975.781,145380,1749725896957.0,262,63,79
1749725896995.656,145414,1749725896976.875,272,63,80
1749725897015.5,145456,1749725896996.688,260,63,83
1749725897035.312,145512,1749725897016.563,268,62,86
1749725897055.156,145571,1749725897036.406,249,63,79
1749725897075.0,145632,1749725897056.25,263,63,76
1749725897094.844,145711,1749725897076.062,264,63,74
1749725897114.719,145804,1749725897095.906,270,63,72
1749725897134.563,145881,1749725897115.813,268,69,83
1749725897154.406,145993,1749725897135.625,271,68,83
1749725897174.2808,146086,1749725897155.469,272,63,81
1749725897194.062,146181,1749725897175.313,260,64,83
1749725897213.937,146281,1749725897195.188,263,63,81
1749725897233.781,146390,1749725897215.031,264,59,78
1749725897253.625,146519,1749725897234.844,271,57,79
1749725897273.438,146685,1749725897254.687,270,57,67
1749725897293.312,146856,1749725897274.563,270,60,78
1749725897313.219,147010,1749725897294.375,271,60,84
1749725897333.031,147115,1749725897314.281,273,55,67
1749725897352.875,147117,1749725897334.094,275,59,84
1749725897372.687,147020,1749725897353.969,263,64,83
1749725897392.562,146804,1749725897373.75,270,64,71
1749725897412.469,146558,1749725897393.594,263,65,75
1749725897432.25,146288,1749725897413.531,275,65,71
1749725897452.094,146063,1749725897433.312,270,63,76
1749725897471.969,145908,1749725897453.156,259,63,78
1749725897491.75,145795,1749725897472.969,255,79,69
1749725897511.656,145735,1749725897492.813,263,56,87
1749725897531.4382,145701,1749725897512.719,263,52,83
1749725897551.344,145657,1749725897532.531,273,55,104
1749725897571.187,145657,1749725897552.469,271,56,92
1749725897591.031,145656,1749725897572.2808,268,63,86
1749725897610.875,145687,1749725897592.094,254,63,83
1749725897630.75,145744,1749725897611.969,261,60,91
1749725897650.562,145798,1749725897631.781,273,63,91
1749725897670.437,145870,1749725897651.625,259,59,87
1749725897690.25,145882,1749725897671.5,271,64,86
1749725897710.125,145931,1749725897691.344,265,59,92
1749725897730.0,145977,1749725897711.1868,255,60,94
1749725897749.844,146001,1749725897731.031,269,61,83
1749725897769.656,146020,1749725897750.906,272,62,82
1749725897789.5,146040,1749725897770.75,259,61,79
1749725897809.406,146033,1749725897790.562,255,61,87
1749725897829.219,146066,1749725897810.437,271,80,87
1749725897849.062,146085,1749725897830.281,263,59,92
1749725897868.906,146126,1749725897850.125,262,57,95
1749725897888.75,146164,1749725897869.969,259,59,107
1749725897908.625,146233,1749725897889.875,260,62,95
1749725897928.406,146316,1749725897909.688,261,59,92
1749725897948.281,146380,1749725897929.531,264,63,82
1749725897968.125,146456,1749725897949.344,264,59,95
1749725897987.969,146549,1749725897969.187,259,60,92
1749725898007.812,146628,1749725897989.062,263,60,88
1749725898027.656,146724,1749725898008.906,262,60,87
1749725898047.5,146822,1749725898028.719,263,59,86
1749725898067.344,146933,1749725898048.594,263,63,90
1749725898087.25,147044,1749725898068.437,264,59,95
1749725898107.0,147163,1749725898088.344,272,60,92
1749725898126.875,147265,1749725898108.094,266,61,89
1749725898146.719,147378,1749725898127.938,268,59,96
1749725898166.594,147493,1749725898147.812,251,79,94
1749725898186.406,147548,1749725898167.656,268,63,102
1749725898206.25,147623,1749725898187.5,272,54,102
1749725898226.125,147650,1749725898207.344,271,56,95
1749725898245.969,147692,1749725898227.188,270,61,107
1749725898265.781,147773,1749725898247.031,264,60,104
1749725898285.656,147887,1749725898266.875,260,60,102
1749725898305.5,147973,1749725898286.75,263,62,99
1749725898325.344,147938,1749725898306.563,270,64,103
1749725898345.188,147779,1749725898326.406,278,59,103
1749725898365.063,147525,1749725898346.281,271,63,95
1749725898384.906,147209,1749725898366.125,259,59,94
1749725898404.781,146880,1749725898385.969,254,71,96
1749725898424.594,146610,1749725898405.844,258,63,94
1749725898444.438,146367,1749725898425.687,275,57,99
1749725898464.313,146200,1749725898445.5,271,61,103
1749725898484.281,146085,1749725898465.375,259,58,96
1749725898503.969,146009,1749725898485.25,259,67,95
1749725898523.844,145958,1749725898505.063,270,62,99
1749725898543.719,145929,1749725898524.937,270,60,92
1749725898563.562,145914,1749725898544.75,264,64,79
1749725898583.375,145926,1749725898564.625,268,62,97
1749725898603.25,145924,1749725898584.469,267,60,99
1749725898623.094,145919,1749725898604.312,272,62,96
1749725898642.969,145865,1749725898624.156,268,57,92
1749725898662.781,145823,1749725898644.0,268,60,79
1749725898682.656,145774,1749725898663.875,275,57,96
1749725898702.5,145706,1749725898683.719,262,61,103
1749725898722.375,145665,1749725898703.594,268,62,96
1749725898742.219,145612,1749725898723.437,255,63,98
1749725898762.125,145601,1749725898743.344,260,60,99
1749725898781.938,145591,1749725898763.188,255,61,103
1749725898801.813,145592,1749725898783.031,259,61,100
1749725898821.687,145603,1749725898802.875,262,63,99
1749725898841.5,145642,1749725898822.75,263,81,89
1749725898861.375,145685,1749725898842.563,262,63,95
1749725898881.219,145747,1749725898862.437,259,61,100
1749725898901.063,145786,1749725898882.312,259,59,111
1749725898920.937,145863,1749725898902.219,258,59,96
1749725898940.781,145939,1749725898922.0,268,60,98
1749725898960.656,146021,1749725898941.844,259,62,87
1749725898980.469,146105,1749725898961.719,262,63,99
1749725899000.313,146172,1749725898981.562,265,59,99
1749725899020.187,146254,1749725899001.406,264,60,99
1749725899040.094,146325,1749725899021.25,271,58,108
1749725899059.938,146421,1749725899041.187,268,62,97
1749725899079.781,146508,1749725899061.031,248,63,103
1749725899099.656,146580,1749725899080.844,259,63,103
1749725899119.5,146668,1749725899100.719,264,61,101
1749725899139.344,146758,1749725899120.563,271,62,103
1749725899159.219,146831,1749725899140.4368,271,55,103
1749725899179.062,146925,1749725899160.312,264,60,92
1749725899198.906,147024,1749725899180.125,252,60,97
1749725899218.75,147113,1749725899199.969,267,67,107
1749725899238.563,147208,1749725899219.812,268,81,97
1749725899258.438,147288,1749725899239.625,269,64,93
1749725899278.281,147329,1749725899259.5,263,62,102
1749725899298.156,147260,1749725899279.344,254,63,95
1749725899318.0,147075,1749725899299.219,268,64,104
1749725899337.844,146788,1749725899319.062,265,60,99
1749725899357.687,146483,1749725899338.906,263,59,94
1749725899377.562,146145,1749725899358.75,272,56,100
1749725899397.344,145885,1749725899378.625,270,58,98
1749725899417.219,145668,1749725899398.438,270,63,103
1749725899437.031,145492,1749725899418.281,259,62,97
1749725899456.875,145412,1749725899438.156,273,60,103
1749725899476.719,145366,1749725899457.938,259,63,102
1749725899496.594,145357,1749725899477.813,269,59,103
1749725899516.406,145356,1749725899497.625,263,72,97
1749725899536.219,145370,1749725899517.469,255,60,103
1749725899556.062,145415,1749725899537.281,255,63,105
1749725899575.906,145461,1749725899557.156,255,57,125
1749725899595.781,145448,1749725899576.969,260,63,108
1749725899615.625,145454,1749725899596.844,265,63,104
1749725899635.438,145436,1749725899616.687,271,60,96
1749725899655.312,145404,1749725899636.563,263,63,98
1749725899675.156,145355,1749725899656.344,271,59,104
1749725899695.0,145322,1749725899676.25,268,60,102
1749725899714.844,145299,1749725899696.062,268,59,102
1749725899734.656,145286,1749725899715.937,265,56,106
1749725899754.531,145291,1749725899735.75,272,70,100
1749725899774.5,145311,1749725899755.594,271,63,108
1749725899794.25,145336,1749725899775.562,260,59,105
1749725899814.063,145389,1749725899795.312,268,62,103
1749725899833.906,145443,1749725899815.156,264,63,103
1749725899853.781,145508,1749725899834.969,249,71,99
1749725899873.625,145571,1749725899854.813,255,59,103
1749725899893.438,145649,1749725899874.687,264,63,107
1749725899913.281,145718,1749725899894.531,252,57,112
1749725899933.156,145802,1749725899914.344,259,60,106
1749725899953.0,145902,1749725899934.25,262,62,88
1749725899972.812,145989,1749725899954.063,265,60,104
1749725899992.688,146086,1749725899973.906,266,59,107
1749725900012.5,146188,1749725899993.75,263,64,102
1749725900032.344,146288,1749725900013.562,263,65,107
1749725900052.187,146381,1749725900033.406,268,65,102
1749725900072.0,146512,1749725900053.313,260,63,96
1749725900091.906,146610,1749725900073.062,269,63,108
1749725900111.75,146717,1749725900092.937,264,57,103
1749725900131.562,146814,1749725900112.813,272,55,99
1749725900151.406,146923,1749725900132.656,264,60,106
1749725900171.281,147032,1749725900152.5,263,56,103
1749725900191.094,147129,1749725900172.344,264,63,96
1749725900210.938,147240,1749725900192.156,270,59,103
1749725900230.75,147315,1749725900212.0,271,56,108
1749725900250.625,147302,1749725900231.844,262,62,97
1749725900270.469,147166,1749725900251.688,258,63,96
1749725900290.344,146931,1749725900271.562,257,62,99
1749725900310.187,146639,1749725900291.437,259,63,107
1749725900330.031,146308,1749725900311.25,262,64,108
1749725900349.875,146065,1749725900331.094,259,61,108
1749725900369.719,145819,1749725900350.937,255,63,102
1749725900389.625,145713,1749725900370.781,264,63,102
1749725900409.437,145615,1749725900390.688,256,63,108
1749725900429.281,145573,1749725900410.469,268,60,99
1749725900449.125,145557,1749725900430.344,268,63,99
1749725900468.969,145556,1749725900450.187,271,55,99
1749725900488.844,145587,1749725900470.031,260,62,107
1749725900508.719,145636,1749725900489.906,262,64,103
1749725900528.563,145682,1749725900509.7808,257,63,99
1749725900548.406,145719,1749725900529.625,268,63,111
1749725900568.25,145706,1749725900549.469,268,64,105
1749725900588.125,145703,1749725900569.313,255,58,110
1749725900608.031,145668,1749725900589.188,270,60,103
1749725900627.844,145633,1749725900609.062,265,59,107
1749725900647.719,145602,1749725900628.906,270,64,102
1749725900667.594,145588,1749725900648.75,264,55,107
1749725900687.437,145580,1749725900668.656,266,59,108
1749725900707.313,145625,1749725900688.562,267,63,108
1749725900727.156,145686,1749725900708.344,259,56,105
1749725900747.031,145791,1749725900728.219,265,59,108
1749725900766.875,145914,1749725900748.094,268,59,106
1749725900786.75,146031,1749725900767.938,268,59,103
1749725900806.594,146164,1749725900787.812,255,63,97
1749725900826.437,146283,1749725900807.656,255,59,105
1749725900846.312,146377,1749725900827.5,260,63,103
1749725900866.125,146484,1749725900847.375,255,59,103
1749725900886.0,146596,1749725900867.188,268,64,99
1749725900905.875,146704,1749725900887.062,262,63,111
1749725900925.719,146807,1749725900906.938,260,59,109
1749725900945.5618,146936,1749725900926.813,268,57,112
1749725900965.406,147053,1749725900946.594,269,64,97
1749725900985.281,147157,1749725900966.5,259,60,111
1749725901005.156,147255,1749725900986.344,263,62,104
1749725901025.031,147331,1749725901006.219,259,62,103
1749725901044.844,147452,1749725901026.094,266,63,104
1749725901064.75,147519,1749725901045.937,264,63,111
1749725901084.594,147609,1749725901065.812,261,57,110
1749725901104.437,147706,1749725901085.625,264,63,112
1749725901124.312,147787,1749725901105.531,263,63,105
1749725901144.156,147892,1749725901125.375,254,63,112
1749725901164.031,147965,1749725901145.219,255,57,100
1749725901183.875,148002,1749725901165.125,262,60,111
1749725901203.75,147940,1749725901184.938,256,63,112
1749725901223.594,147764,1749725901204.813,260,60,103
1749725901243.469,147502,1749725901224.656,257,64,110
1749725901263.312,147204,1749725901244.531,264,64,99
1749725901283.156,146907,1749725901264.375,257,59,115
1749725901303.031,146677,1749725901284.25,260,60,112
1749725901322.906,146495,1749725901304.125,252,62,112
1749725901342.75,146359,1749725901323.969,255,61,114
1749725901362.594,146298,1749725901343.813,255,57,114
1749725901382.469,146249,1749725901363.719,255,62,113
1749725901402.344,146246,1749725901383.531,268,60,112
1749725901422.156,146270,1749725901403.406,262,60,110
1749725901442.031,146298,1749725901423.219,270,56,110
1749725901461.937,146343,1749725901443.094,258,67,110
1749725901481.75,146368,1749725901462.969,267,64,99
1749725901501.594,146396,1749725901482.812,262,59,106
1749725901521.437,146384,1749725901502.656,252,59,115
1749725901541.312,146359,1749725901522.5,263,56,107
1749725901561.188,146320,1749725901542.406,268,62,107
1749725901581.0,146274,1749725901562.25,262,63,106
1749725901600.906,146213,1749725901582.094,256,63,103
1749725901620.75,146172,1749725901601.969,255,63,111
1749725901640.594,146178,1749725901621.813,261,61,111
1749725901660.438,146185,1749725901641.656,259,56,95
1749725901680.313,146208,1749725901661.5,255,61,112
1749725901700.187,146244,1749725901681.375,264,56,116
1749725901720.031,146265,1749725901701.25,252,63,104
1749725901739.875,146335,1749725901721.094,268,63,108
1749725901759.75,146382,1749725901740.937,263,63,96
1749725901779.625,146455,1749725901760.844,264,64,107
1749725901799.469,146518,1749725901780.688,270,63,118
1749725901819.313,146571,1749725901800.531,268,57,111
1749725901839.188,146649,1749725901820.375,259,63,105
1749725901859.062,146741,1749725901840.25,267,63,108
1749725901878.906,146791,1749725901860.125,254,57,103
1749725901898.75,146884,1749725901879.969,252,59,103
1749725901918.656,146921,1749725901899.812,251,65,114
1749725901938.469,146998,1749725901919.719,265,58,103
1749725901958.312,147070,1749725901939.531,252,59,111
1749725901978.187,147161,1749725901959.406,259,59,110
1749725901998.031,147246,1749725901979.25,259,55,120
1749725902017.906,147333,1749725901999.125,265,59,111
1749725902037.75,147398,1749725902018.937,267,57,101
1749725902057.625,147368,1749725902038.844,259,63,111
1749725902077.469,147227,1749725902058.656,264,60,100
1749725902097.344,146997,1749725902078.531,262,60,108
1749725902117.156,146681,1749725902098.406,262,61,104
1749725902137.0,146394,1749725902118.219,267,60,108
1749725902156.844,146143,1749725902138.031,264,64,102
1749725902176.719,145932,1749725902157.906,264,64,107
1749725902196.594,145761,1749725902177.75,264,57,95
1749725902216.437,145681,1749725902197.687,268,72,103
1749725902236.312,145617,1749725902217.469,268,56,112
1749725902256.156,145614,1749725902237.406,263,63,110
1749725902276.031,145610,1749725902257.219,255,57,115
1749725902295.875,145660,1749725902277.094,266,58,112
1749725902315.812,145710,1749725902296.938,257,60,110
1749725902335.594,145761,1749725902316.781,255,68,103
1749725902355.469,145777,1749725902336.656,264,59,111
1749725902375.281,145783,1749725902356.531,259,57,115
1749725902395.156,145781,1749725902376.375,263,60,116
1749725902415.062,145735,1749725902396.25,254,62,113
1749725902434.875,145683,1749725902416.125,255,59,112
1749725902454.75,145677,1749725902435.969,260,63,110
1749725902474.625,145666,1749725902455.844,268,63,110
1749725902494.469,145674,1749725902475.688,264,60,115
1749725902514.313,145663,1749725902495.531,264,65,107
1749725902534.219,145701,1749725902515.375,264,63,111
1749725902554.031,145755,1749725902535.281,259,63,103
1749725902573.906,145812,1749725902555.094,255,60,103
1749725902593.75,145861,1749725902574.969,255,61,112
1749725902613.594,145920,1749725902594.812,255,56,112
1749725902633.469,145986,1749725902614.656,254,63,113
1749725902653.312,146054,1749725902634.531,268,59,114
1749725902673.156,146126,1749725902654.375,257,63,103
1749725902693.0,146222,1749725902674.25,258,63,108
1749725902712.844,146288,1749725902694.062,249,62,112
1749725902732.687,146359,1749725902713.906,257,64,103
1749725902752.562,146451,1749725902733.781,270,62,103
1749725902772.375,146536,1749725902753.625,255,65,112
1749725902792.219,146635,1749725902773.438,255,63,107
1749725902812.094,146735,1749725902793.312,268,59,110
1749725902831.937,146811,1749725902813.156,264,59,118
1749725902851.75,146902,1749725902833.0,255,60,115
1749725902871.656,147020,1749725902852.844,259,59,119
1749725902891.469,147107,1749725902872.687,260,59,115
1749725902911.344,147085,1749725902892.531,260,59,110
1749725902931.156,146969,1749725902912.406,263,63,110
1749725902951.031,146717,1749725902932.219,270,64,103
1749725902970.906,146389,1749725902952.094,267,62,113
1749725902990.75,146051,1749725902971.969,271,62,110
1749725903010.562,145755,1749725902991.812,264,63,107
1749725903030.406,145515,1749725903011.656,251,63,111
1749725903050.25,145317,1749725903031.469,259,62,110
1749725903070.094,145200,1749725903051.344,259,60,103
1749725903089.938,145114,1749725903071.125,270,57,97
1749725903109.781,145041,1749725903091.031,259,59,111
1749725903129.625,145000,1749725903110.906,263,63,115
1749725903149.5,144993,1749725903130.688,263,64,113
1749725903169.313,144995,1749725903150.562,251,62,108
1749725903189.156,144997,1749725903170.406,264,63,118
1749725903209.125,145008,1749725903190.219,263,65,112
1749725903228.937,145001,1749725903210.188,252,64,113
1749725903248.688,144974,1749725903229.906,269,57,96
1749725903268.531,144922,1749725903249.8118,260,60,111
1749725903288.406,144902,1749725903269.625,259,62,112
1749725903308.25,144870,1749725903289.469,263,62,104
1749725903328.125,144835,1749725903309.313,257,58,110
1749725903347.906,144835,1749725903329.156,268,64,103
1749725903367.75,144834,1749725903348.969,265,59,110
1749725903387.594,144847,1749725903368.812,272,55,99
1749725903407.469,144868,1749725903388.656,252,63,111
1749725903427.313,144917,1749725903408.531,264,59,110
1749725903447.125,144959,1749725903428.375,259,63,103
1749725903466.969,145013,1749725903448.187,252,63,110
1749725903486.844,145071,1749725903468.031,255,59,107
1749725903506.687,145137,1749725903487.938,255,62,111
1749725903526.563,145208,1749725903507.781,259,63,111
1749725903546.406,145303,1749725903527.594,271,63,107
1749725903566.25,145385,1749725903547.469,257,65,110
1749725903586.094,145462,1749725903567.313,252,58,120
1749725903605.937,145554,1749725903587.188,250,59,118
1749725903625.813,145671,1749725903607.0,256,63,111
1749725903645.656,145746,1749725903626.875,260,63,111
1749725903665.594,145850,1749725903646.719,257,62,112
1749725903685.312,145949,1749725903666.563,264,66,95
1749725903705.188,146045,1749725903686.406,259,62,105
1749725903725.063,146150,1749725903706.25,268,62,105
1749725903744.875,146261,1749725903726.125,263,59,112
1749725903764.75,146370,1749725903746.0,255,63,110
1749725903784.625,146458,1749725903765.8132,264,63,105
1749725903804.5,146557,1749725903785.687,251,60,111
1749725903824.313,146511,1749725903805.562,268,62,104
1749725903844.187,146352,1749725903825.438,268,63,102
1749725903864.031,146075,1749725903845.25,268,61,108
1749725903884.0,145722,1749725903865.094,268,63,110
1749725903903.75,145385,1749725903885.062,259,60,115
1749725903923.531,145078,1749725903904.812,252,61,106
1749725903943.406,144864,1749725903924.594,259,64,113
1749725903963.25,144741,1749725903944.469,259,51,110
1749725903983.094,144636,1749725903964.313,255,64,113
1749725904003.0,144602,1749725903984.1868,251,61,112
1749725904022.781,144583,1749725904004.0,260,64,108
1749725904042.656,144577,1749725904023.844,267,63,106
1749725904062.5,144605,1749725904043.719,268,63,106
1749725904082.281,144637,1749725904063.562,259,57,104
1749725904102.156,144666,1749725904083.344,262,63,108
1749725904121.969,144670,1749725904103.25,254,63,108
1749725904141.844,144666,1749725904123.031,262,63,110
1749725904161.688,144632,1749725904142.906,264,63,107
1749725904181.531,144603,1749725904162.75,263,63,95
1749725904201.406,144571,1749725904182.594,259,63,112
1749725904221.25,144557,1749725904202.437,263,65,111
1749725904241.062,144528,1749725904222.281,262,63,108
1749725904260.906,144534,1749725904242.125,255,64,110
1749725904280.75,144551,1749725904261.969,255,62,108
1749725904300.625,144611,1749725904281.844,272,63,110
1749725904320.437,144660,1749725904301.688,255,59,112
1749725904340.312,144716,1749725904321.563,259,63,115
1749725904360.156,144808,1749725904341.375,267,76,108
1749725904380.0,144875,1749725904361.219,268,57,110
1749725904399.844,144993,1749725904381.062,265,61,108
1749725904419.656,145059,1749725904400.938,268,62,111
1749725904439.531,145159,1749725904420.719,265,59,97
1749725904459.406,145264,1749725904440.625,262,63,109
1749725904479.219,145351,1749725904460.5,260,63,112
1749725904499.094,145479,1749725904480.344,252,63,110
1749725904518.937,145576,1749725904500.1882,264,63,112
1749725904538.781,145698,1749725904520.0,251,63,110
1749725904558.625,145793,1749725904539.844,259,61,112
1749725904578.5,145898,1749725904559.75,260,66,120
1749725904598.375,145992,1749725904579.563,263,63,107
1749725904618.219,146091,1749725904599.438,261,64,103
1749725904638.031,146223,1749725904619.281,268,67,112
1749725904657.875,146325,1749725904639.125,255,62,106
1749725904677.75,146453,1749725904658.937,259,63,112
1749725904697.594,146550,1749725904678.813,271,83,111
1749725904717.438,146658,1749725904698.656,259,60,103
1749725904737.25,146781,1749725904718.531,249,67,106
1749725904757.094,146878,1749725904738.312,268,60,107
1749725904776.969,146883,1749725904758.125,263,59,110
1749725904796.844,146745,1749725904778.031,265,64,109
1749725904816.625,146525,1749725904797.906,263,64,97
1749725904836.469,146227,1749725904817.719,263,63,103
1749725904856.313,145913,1749725904837.531,257,63,106
1749725904876.187,145623,1749725904857.406,267,62,110
1749725904896.0,145392,1749725904877.25,263,63,107
1749725904915.844,145251,1749725904897.094,264,61,102
1749725904935.688,145149,1749725904916.937,268,60,107
1749725904955.594,145093,1749725904936.75,259,59,110
1749725904975.375,145100,1749725904956.594,255,76,105
1749725904995.375,145107,1749725904976.5,270,63,110
1749725905015.094,145159,1749725904996.437,249,62,103
1749725905034.969,145244,1749725905016.187,260,63,118
1749725905054.781,145294,1749725905036.094,263,64,108
1749725905074.625,145318,1749725905055.875,257,63,104
1749725905094.469,145341,1749725905075.688,268,63,97
1749725905114.313,145329,1749725905095.5,255,61,107
1749725905134.125,145251,1749725905115.375,264,58,97
1749725905154.0,145138,1749725905135.187,268,55,93
1749725905173.844,145000,1749725905155.063,251,64,112
1749725905193.688,144911,1749725905174.906,251,60,112
1749725905213.531,144841,1749725905194.719,262,64,113
1749725905233.344,144833,1749725905214.594,263,57,103
1749725905253.187,144842,1749725905234.406,251,57,114
1749725905273.031,144887,1749725905254.281,257,59,103
1749725905292.875,144942,1749725905274.063,264,57,95
1749725905312.6882,145049,1749725905293.906,243,67,112
1749725905332.562,145144,1749725905313.781,260,63,115
1749725905352.437,145257,1749725905333.625,267,63,118
1749725905372.281,145394,1749725905353.5,263,60,111
1749725905392.094,145539,1749725905373.344,259,63,110
1749725905411.938,145687,1749725905393.219,262,67,112
1749725905431.812,145815,1749725905413.0,265,62,107
1749725905451.656,145941,1749725905432.844,268,57,93
1749725905471.469,146057,1749725905452.719,252,60,112
1749725905491.344,146163,1749725905472.562,273,60,119
1749725905511.188,146288,1749725905492.406,263,59,114
1749725905531.031,146389,1749725905512.25,259,63,118
1749725905550.844,146525,1749725905532.094,252,60,112
1749725905570.688,146643,1749725905551.938,264,59,111
1749725905590.563,146758,1749725905571.75,255,56,107
1749725905610.406,146889,1749725905591.594,268,63,108
1749725905630.219,146983,1749725905611.469,263,60,102
1749725905650.094,147033,1749725905631.313,264,55,111
1749725905669.938,146953,1749725905651.156,268,60,99
1749725905689.781,146752,1749725905671.0,267,67,103
1749725905709.625,146459,1749725905690.844,267,62,112
1749725905729.437,146124,1749725905710.6882,270,55,114
1749725905749.281,145837,1749725905730.5,263,65,120
1749725905769.125,145582,1749725905750.406,268,64,99
1749725905789.0,145401,1749725905770.219,254,56,108
1749725905808.781,145300,1749725905790.062,268,62,112
1749725905828.687,145248,1749725905809.875,268,61,103
1749725905848.625,145223,1749725905829.719,259,64,107
1749725905868.438,145225,1749725905849.687,265,63,110
1749725905888.2192,145251,1749725905869.469,252,58,99
1749725905908.062,145303,1749725905889.313,263,59,112
1749725905927.937,145350,1749725905909.094,259,55,105
1749725905947.813,145390,1749725905929.031,267,63,108
1749725905967.594,145417,1749725905948.844,276,57,99
1749725905987.469,145416,1749725905968.719,260,64,95
1749725906007.312,145419,1749725905988.531,263,60,107
1749725906027.156,145393,1749725906008.375,263,59,99
1749725906046.969,145373,1749725906028.219,267,59,112
1749725906066.844,145358,1749725906048.031,270,60,100
1749725906086.687,145368,1749725906067.906,265,62,107
1749725906106.562,145367,1749725906087.844,264,65,110
1749725906126.375,145411,1749725906107.625,263,63,108
1749725906146.188,145458,1749725906127.469,262,63,104
1749725906166.063,145514,1749725906147.25,268,60,106
1749725906185.906,145585,1749725906167.125,263,57,108
1749725906205.719,145661,1749725906187.0,264,63,102
1749725906225.594,145737,1749725906206.813,265,60,102
1749725906245.438,145815,1749725906226.656,249,63,108
1749725906265.25,145892,1749725906246.5,263,57,111
1749725906285.156,145970,1749725906266.313,268,59,107
1749725906305.0,146050,1749725906286.219,259,63,108
1749725906324.781,146146,1749725906306.031,268,70,98
1749725906344.656,146223,1749725906325.844,265,60,106
1749725906364.5,146261,1749725906345.719,255,59,111
1749725906384.312,146340,1749725906365.594,255,63,111
1749725906404.187,146429,1749725906385.406,267,60,110
1749725906424.031,146514,1749725906405.281,262,62,104
1749725906443.906,146610,1749725906425.094,259,64,103
1749725906463.75,146672,1749725906444.969,268,59,95
1749725906483.594,146731,1749725906464.844,259,62,96
1749725906503.469,146795,1749725906484.656,264,59,102
1749725906523.375,146834,1749725906504.531,259,60,103
1749725906543.125,146824,1749725906524.375,259,64,107
1749725906563.031,146688,1749725906544.25,267,61,111
1749725906582.875,146442,1749725906564.094,254,64,115
1749725906602.719,146094,1749725906583.937,263,67,110
1749725906622.563,145768,1749725906603.781,259,63,110
1749725906642.531,145438,1749725906623.656,255,57,111
1749725906662.312,145185,1749725906643.5,267,71,110
1749725906682.156,144974,1749725906663.375,268,55,104
1749725906701.969,144830,1749725906683.25,273,63,105
1749725906721.844,144746,1749725906703.062,271,55,113
1749725906741.687,144678,1749725906722.906,255,54,112
1749725906761.531,144664,1749725906742.719,254,64,112
1749725906781.406,144668,1749725906762.594,248,63,111
1749725906801.25,144688,1749725906782.531,264,61,111
1749725906821.125,144711,1749725906802.313,255,59,111
1749725906840.969,144730,1749725906822.219,268,63,103
1749725906860.813,144742,1749725906842.031,255,64,110
1749725906880.688,144696,1749725906861.906,252,63,109
1749725906900.5,144637,1749725906881.719,259,63,99
1749725906920.375,144550,1749725906901.563,262,63,104
1749725906940.187,144479,1749725906921.438,256,72,103
1749725906960.031,144393,1749725906941.281,251,63,108
1749725906980.0,144349,1749725906961.062,263,64,99
1749725906999.75,144333,1749725906980.969,264,72,105
1749725907019.687,144320,1749725907000.813,263,59,115
1749725907039.438,144342,1749725907020.688,259,66,110
1749725907059.281,144368,1749725907040.531,273,67,124
1749725907079.156,144414,1749725907060.375,271,63,115
1749725907098.969,144471,1749725907080.219,254,63,112
1749725907118.812,144497,1749725907100.063,248,63,113
1749725907138.656,144565,1749725907119.875,264,56,115
1749725907158.5,144667,1749725907139.719,237,67,111
1749725907178.344,144757,1749725907159.562,247,64,115
1749725907198.187,144859,1749725907179.406,260,63,103
1749725907218.031,144977,1749725907199.25,252,63,110
1749725907237.875,145074,1749725907219.094,264,63,97
1749725907257.719,145159,1749725907238.937,263,65,99
1749725907277.531,145274,1749725907258.781,272,60,103
1749725907297.406,145392,1749725907278.625,259,63,110
1749725907317.219,145491,1749725907298.438,262,62,112
1749725907337.094,145602,1749725907318.281,262,63,99
1749725907356.906,145680,1749725907338.156,255,63,103
1749725907376.719,145760,1749725907358.0,268,59,102
1749725907396.594,145860,1749725907377.781,252,63,103
1749725907416.469,145940,1749725907397.656,258,67,113
1749725907436.313,146019,1749725907417.531,253,63,118
1749725907456.125,146107,1749725907437.406,264,63,119
1749725907475.969,146200,1749725907457.187,268,63,115
1749725907495.812,146262,1749725907477.063,270,59,108
1749725907515.625,146231,1749725907496.844,271,65,115
1749725907535.594,146065,1749725907516.75,250,63,109
1749725907555.313,145783,1749725907536.625,252,64,103
1749725907575.156,145388,1749725907556.406,262,63,114
1749725907595.0,144982,1749725907576.25,267,66,114
1749725907614.813,144642,1749725907596.063,259,79,112
1749725907634.688,144371,1749725907615.875,265,63,114
1749725907654.531,144155,1749725907635.75,260,65,115
1749725907674.375,144004,1749725907655.594,260,64,106
1749725907694.219,143916,1749725907675.438,262,63,111
1749725907714.063,143875,1749725907695.281,263,63,118
1749725907733.906,143867,1749725907715.094,268,63,112
1749725907753.781,143892,1749725907734.969,254,63,118
1749725907773.594,143933,1749725907754.844,267,63,120
1749725907793.469,143976,1749725907774.656,262,56,111
1749725907813.344,143992,1749725907794.531,265,57,114
1749725907833.188,143996,1749725907814.375,263,63,112
1749725907853.031,143997,1749725907834.25,254,63,111
1749725907872.969,143930,1749725907854.156,268,67,115
1749725907892.75,143915,1749725907874.125,253,67,106
1749725907912.625,143870,1749725907893.812,260,67,102
1749725907932.437,143858,1749725907913.656,257,67,111
1749725907952.25,143841,1749725907933.531,259,54,112
1749725907972.156,143853,1749725907953.344,254,59,115
1749725907992.0,143878,1749725907973.219,264,62,115
1749725908011.813,143939,1749725907993.0,263,64,112
1749725908031.687,143961,1749725908012.906,254,65,118
1749725908051.531,144036,1749725908032.75,264,63,96
1749725908071.406,144123,1749725908052.594,255,63,103
1749725908091.25,144205,1749725908072.469,255,63,112
1749725908111.125,144271,1749725908092.344,260,64,115
1749725908130.969,144351,1749725908112.25,260,63,115
1749725908150.844,144453,1749725908132.031,254,64,113
1749725908170.656,144535,1749725908151.906,252,63,111
1749725908190.5,144611,1749725908171.75,270,65,114
1749725908210.437,144715,1749725908191.562,263,63,113
1749725908230.219,144801,1749725908211.5,256,63,111
1749725908250.094,144873,1749725908231.281,253,65,110
1749725908269.938,144971,1749725908251.156,255,63,118
1749725908289.781,145083,1749725908271.031,270,63,109
1749725908309.656,145188,1749725908290.844,255,60,120
1749725908329.469,145286,1749725908310.719,267,64,113
1749725908349.344,145389,1749725908330.562,252,63,128
1749725908369.219,145470,1749725908350.437,264,59,114
1749725908389.062,145544,1749725908370.281,259,62,116
1749725908408.906,145656,1749725908390.156,257,63,113
1749725908428.75,145759,1749725908410.0,249,63,112
1749725908448.594,145872,1749725908429.812,260,63,110
1749725908468.437,145984,1749725908449.687,255,63,115
1749725908488.281,146075,1749725908469.469,264,59,97
1749725908508.188,146119,1749725908489.406,268,62,103
1749725908528.063,146046,1749725908509.25,248,59,103
1749725908547.937,145840,1749725908529.094,263,60,110
1749725908567.719,145553,1749725908549.0,252,59,111
1749725908587.562,145170,1749725908568.781,267,63,113
1749725908607.438,144832,1749725908588.625,255,63,110
1749725908627.25,144526,1749725908608.5,265,62,119
1749725908647.125,144302,1749725908628.312,263,63,118
1749725908666.969,144119,1749725908648.1882,249,62,122
1749725908686.812,143993,1749725908668.031,264,63,107
1749725908706.688,143941,1749725908687.906,263,60,115
1749725908726.5,143877,1749725908707.75,267,59,112
1749725908746.344,143876,1749725908727.562,268,62,113
1749725908766.219,143886,1749725908747.406,257,63,110
1749725908786.094,143940,1749725908767.25,267,60,110
1749725908805.906,143958,1749725908787.156,250,63,112
1749725908825.75,143967,1749725908806.969,264,63,114
1749725908845.625,143977,1749725908826.813,263,63,118
1749725908865.531,143966,1749725908846.688,264,63,115
1749725908885.375,143923,1749725908866.594,252,65,118
1749725908905.188,143898,1749725908886.469,252,63,113
1749725908925.062,143867,1749725908906.25,262,63,113
1749725908944.906,143851,1749725908926.125,252,62,119
1749725908964.781,143885,1749725908945.969,254,71,119
1749725908984.594,143894,1749725908965.844,265,62,115
1749725909004.437,143928,1749725908985.656,270,53,114
1749725909024.281,143964,1749725909005.5,263,63,113
1749725909044.156,144018,1749725909025.344,267,63,115
1749725909063.969,144095,1749725909045.219,263,67,120
1749725909083.844,144168,1749725909065.062,263,63,115
1749725909103.687,144241,1749725909084.875,262,60,118
1749725909123.531,144336,1749725909104.719,264,65,113
1749725909143.344,144423,1749725909124.594,259,60,116
1749725909163.219,144519,1749725909144.437,264,64,118
1749725909183.063,144608,1749725909164.281,264,60,112
1749725909202.9368,144700,1749725909184.125,256,63,118
1749725909222.781,144794,1749725909204.0,263,63,118
1749725909242.625,144907,1749725909223.844,256,63,120
1749725909262.5,145015,1749725909243.687,252,63,120
1749725909282.375,145093,1749725909263.562,259,63,114
1749725909302.187,145224,1749725909283.438,255,60,115
1749725909322.031,145313,1749725909303.25,259,61,120
1749725909341.938,145433,1749725909323.094,263,60,118
1749725909361.7808,145571,1749725909342.969,263,62,123
1749725909381.625,145759,1749725909362.844,262,60,120
1749725909401.469,145932,1749725909382.719,248,63,110
1749725909421.344,146142,1749725909402.531,249,60,112
1749725909441.219,146334,1749725909422.406,252,63,113
1749725909461.031,146465,1749725909442.313,271,63,111
1749725909480.906,146463,1749725909462.094,271,65,104
1749725909500.781,146364,1749725909481.938,271,67,112
1749725909520.594,146120,1749725909501.875,255,68,120
1749725909540.469,145838,1749725909521.656,263,64,119
1749725909560.344,145503,1749725909541.531,262,67,115
1749725909580.25,145215,1749725909561.406,263,63,114
1749725909600.063,145017,1749725909581.25,259,57,108
1749725909619.906,144863,1749725909601.125,260,60,116
1749725909639.75,144824,1749725909621.0,262,62,115
1749725909659.594,144818,1749725909640.8132,252,63,112
1749725909679.5,144858,1749725909660.656,254,63,112
1749725909699.281,144946,1749725909680.5,255,72,108
1749725909719.156,145039,1749725909700.406,252,63,117
1749725909738.969,145140,1749725909720.219,246,63,116
1749725909758.844,145195,1749725909740.063,255,63,120
1749725909778.688,145221,1749725909759.906,252,60,119
1749725909798.531,145217,1749725909779.781,255,64,118
1749725909818.406,145215,1749725909799.594,267,62,118
1749725909838.312,145178,1749725909819.469,266,67,119
1749725909858.156,145127,1749725909839.375,260,68,106
1749725909878.031,145081,1749725909859.25,280,67,110
1749725909897.906,145056,1749725909879.094,270,65,116
1749725909917.75,145019,1749725909898.969,265,63,120
1749725909937.531,145020,1749725909918.813,262,63,111
1749725909957.375,145057,1749725909938.625,249,63,112
1749725909977.281,145100,1749725909958.437,247,65,105
1749725909997.125,145165,1749725909978.344,254,63,118
1749725910016.937,145225,1749725909998.188,263,62,113
1749725910036.813,145305,1749725910018.0308,264,63,114
1749725910056.6558,145501,1749725910037.875,252,59,122
1749725910076.5,145676,1749725910057.687,257,62,124
1749725910096.344,145873,1749725910077.531,257,58,111
1749725910116.188,146067,1749725910097.406,259,63,120
1749725910136.031,146204,1749725910117.25,265,62,120
1749725910155.875,146348,1749725910137.125,258,63,112
1749725910175.75,146453,1749725910156.906,264,69,115
1749725910195.5618,146499,1749725910176.813,262,71,118
1749725910215.438,146566,1749725910196.625,255,67,126
1749725910235.281,146582,1749725910216.5,263,63,122
1749725910255.125,146641,1749725910236.344,263,67,120
1749725910275.0,146679,1749725910256.219,265,64,115
1749725910294.812,146693,1749725910276.031,252,64,119
1749725910314.688,146734,1749725910295.906,255,58,123
1749725910334.531,146790,1749725910315.781,249,63,123
1749725910354.375,146853,1749725910335.594,248,63,126
1749725910374.187,146943,1749725910355.438,248,71,122
1749725910394.031,146979,1749725910375.219,249,64,119
1749725910413.875,146910,1749725910395.094,252,67,120
1749725910433.719,146707,1749725910414.937,248,69,128
1749725910453.594,146455,1749725910434.813,251,67,124
1749725910473.469,146164,1749725910454.656,263,63,126
1749725910493.344,145897,1749725910474.531,254,63,118
1749725910513.156,145697,1749725910494.406,255,63,131
1749725910533.031,145541,1749725910514.281,263,63,126
1749725910552.875,145421,1749725910534.063,271,67,121
1749725910572.719,145365,1749725910553.938,254,67,127
1749725910592.563,145356,1749725910573.812,262,63,126
1749725910612.437,145383,1749725910593.687,262,63,118
1749725910632.344,145444,1749725910613.469,263,64,111
1749725910652.188,145567,1749725910633.406,271,67,125
1749725910672.0,145709,1749725910653.25,248,63,123
1749725910691.875,145808,1749725910673.125,249,71,114
1749725910711.719,145913,1749725910692.938,246,71,115
1749725910731.594,145959,1749725910712.781,254,67,118
1749725910751.406,146016,1749725910732.687,252,63,123
1749725910771.25,146023,1749725910752.5,252,64,121
1749725910791.125,146028,1749725910772.312,263,69,127
1749725910810.937,146035,1749725910792.188,263,67,126
1749725910830.781,146079,1749725910812.0,262,67,113
1749725910850.625,146121,1749725910831.875,264,63,119
1749725910870.5,146174,1749725910851.687,268,63,124
1749725910890.406,146234,1749725910871.531,263,67,115
1749725910910.25,146300,1749725910891.469,255,62,126
1749725910930.094,146402,1749725910911.344,248,59,115
1749725910949.969,146485,1749725910931.156,252,72,118
1749725910969.937,146585,1749725910951.031,252,63,120
1749725910989.656,146702,1749725910971.0,259,63,115
1749725911009.531,146815,1749725910990.75,259,63,108
1749725911029.375,146938,1749725911010.594,255,67,115
1749725911049.219,147026,1749725911030.469,251,63,118
1749725911069.062,147088,1749725911050.313,264,70,116
1749725911088.937,147167,1749725911070.156,255,67,130
1749725911108.781,147251,1749725911090.0,263,55,128
1749725911128.656,147372,1749725911109.812,255,61,121
1749725911148.469,147470,1749725911129.719,247,63,120
1749725911168.312,147585,1749725911149.563,248,61,111
1749725911188.188,147716,1749725911169.406,264,63,116
1749725911208.063,147841,1749725911189.281,263,63,122
1749725911227.906,147938,1749725911209.156,266,63,120
1749725911247.75,147948,1749725911229.0,255,67,126
1749725911267.625,147812,1749725911248.813,259,67,119
1749725911287.469,147573,1749725911268.719,266,63,115
1749725911307.344,147273,1749725911288.531,255,59,122
1749725911327.219,146910,1749725911308.375,255,54,111
1749725911347.094,146600,1749725911328.281,263,63,123
1749725911366.9382,146331,1749725911348.156,268,59,123
1749725911386.781,146122,1749725911368.0,264,59,115
1749725911406.625,145995,1749725911387.844,255,65,123
1749725911426.5,145873,1749725911407.719,257,68,118
1749725911446.344,145811,1749725911427.594,259,82,115
1749725911466.188,145806,1749725911447.406,263,69,113
1749725911486.063,145836,1749725911467.281,263,67,118
1749725911505.937,145880,1749725911487.156,260,61,116
1749725911525.812,145959,1749725911507.031,261,63,108
1749725911545.656,146013,1749725911526.875,263,55,110
1749725911565.5,146042,1749725911546.844,252,63,112
1749725911585.375,146047,1749725911566.562,259,62,112
1749725911605.25,146014,1749725911586.469,254,59,122
1749725911625.063,145997,1749725911606.313,252,62,127
1749725911645.031,145980,1749725911626.156,261,59,123
1749725911664.844,145969,1749725911646.063,264,64,104
1749725911684.687,145984,1749725911665.844,255,57,104
1749725911704.531,146007,1749725911685.75,254,62,108
1749725911724.375,145966,1749725911705.625,255,60,112
1749725911744.25,145879,1749725911725.437,267,63,109
1749725911764.094,145752,1749725911745.313,260,63,108
1749725911783.937,145638,1749725911765.156,248,63,119
1749725911803.781,145534,1749725911785.031,252,78,124
1749725911823.656,145371,1749725911804.875,250,67,121
1749725911843.531,145257,1749725911824.719,249,67,118
1749725911863.344,145149,1749725911844.594,254,67,108
1749725911883.219,145078,1749725911864.469,252,71,118
1749725911903.063,145025,1749725911884.281,255,67,118
1749725911922.906,144991,1749725911904.125,255,63,110
1749725911942.719,144988,1749725911923.969,265,70,103
1749725911962.562,144960,1749725911943.781,272,63,111
1749725911982.438,144938,1749725911963.625,263,63,116
1749725912002.281,144879,1749725911983.5,254,63,115
1749725912022.125,144821,1749725912003.344,248,70,110
1749725912041.969,144732,1749725912023.25,251,65,113
1749725912061.844,144544,1749725912043.031,230,71,99
1749725912081.688,144253,1749725912062.906,247,63,100
1749725912101.531,143927,1749725912082.719,252,65,114
1749725912121.344,143574,1749725912102.594,262,71,122
1749725912141.187,143212,1749725912122.438,263,60,127
1749725912161.063,142890,1749725912142.281,260,63,142
1749725912180.906,142672,1749725912162.0942,264,60,144
1749725912200.75,142524,1749725912181.969,263,63,131
1749725912220.562,142472,1749725912201.813,259,63,126
1749725912240.437,142464,1749725912221.656,266,63,124
1749725912260.313,142469,1749725912241.531,263,61,122
1749725912280.125,142493,1749725912261.344,259,63,114
1749725912299.969,142508,1749725912281.25,253,63,114
1749725912319.844,142524,1749725912301.031,262,63,123
1749725912339.719,142538,1749725912320.906,252,63,122
1749725912359.5632,142555,1749725912340.781,251,63,126
1749725912379.406,142534,1749725912360.656,263,64,127
1749725912399.25,142551,1749725912380.469,254,67,127
1749725912419.125,142589,1749725912400.313,254,65,127
1749725912438.938,142727,1749725912420.187,248,63,136
1749725912458.75,142951,1749725912440.031,248,55,120
1749725912478.75,143178,1749725912459.812,252,63,130
1749725912498.5,143445,1749725912479.75,267,72,113
1749725912518.312,143689,1749725912499.563,254,63,128
1749725912538.156,144023,1749725912519.406,254,65,124
1749725912558.0,144477,1749725912539.219,255,61,124
1749725912577.906,144979,1749725912559.062,248,63,118
1749725912597.719,145464,1749725912578.969,265,63,118
1749725912617.531,145941,1749725912598.844,270,60,111
1749725912637.406,146422,1749725912618.625,255,63,115
1749725912657.375,146852,1749725912638.469,264,63,114
1749725912677.156,147228,1749725912658.406,259,57,100
1749725912696.969,147541,1749725912678.188,251,59,113
1749725912716.844,147750,1749725912698.031,254,63,111
1749725912736.688,147852,1749725912717.906,259,63,120
1749725912756.5,147822,1749725912737.719,265,67,114
1749725912776.344,147628,1749725912757.625,265,63,116
1749725912796.187,147353,1749725912777.375,262,64,113
1749725912816.063,147046,1749725912797.281,259,63,110
1749725912835.906,146866,1749725912817.125,263,63,114
1749725912855.719,146750,1749725912836.937,263,64,136
1749725912875.594,146675,1749725912856.813,264,62,131
1749725912895.406,146633,1749725912876.688,259,62,140
1749725912915.313,146572,1749725912896.437,262,64,123
1749725912935.125,146341,1749725912916.375,259,60,126
1749725912954.969,146032,1749725912936.188,262,67,118
1749725912974.844,145645,1749725912956.031,259,67,118
1749725912994.781,145347,1749725912975.906,255,63,115
1749725913014.5,145051,1749725912995.875,259,60,110
1749725913034.375,144782,1749725913015.594,248,64,107
1749725913054.219,144569,1749725913035.438,254,63,115
1749725913074.063,144482,1749725913055.25,271,59,113
1749725913093.9382,144425,1749725913075.125,263,59,97
1749725913113.75,144426,1749725913095.0,273,61,107
1749725913133.594,144406,1749725913114.844,268,64,101
1749725913153.563,144346,1749725913134.656,268,65,114
1749725913173.25,144269,1749725913154.531,260,78,100
1749725913193.125,144054,1749725913174.344,268,67,100
1749725913213.0,143742,1749725913194.187,260,63,102
1749725913232.812,143360,1749725913214.063,264,63,103
1749725913252.656,142961,1749725913233.875,255,63,97
1749725913272.5,142552,1749725913253.719,254,65,106
1749725913292.344,142151,1749725913273.562,252,67,108
1749725913312.187,141741,1749725913293.406,255,63,103
1749725913332.031,141356,1749725913313.25,257,67,98
1749725913351.875,141009,1749725913333.094,259,63,99
1749725913371.719,140724,1749725913352.969,257,63,103
1749725913391.625,140428,1749725913372.781,262,67,107
1749725913411.437,140192,1749725913392.688,257,62,103
1749725913431.281,140002,1749725913412.531,252,64,107
1749725913451.188,139843,1749725913432.344,252,67,106
1749725913471.0,139700,1749725913452.219,270,72,107
1749725913490.875,139564,1749725913472.094,271,67,98
1749725913510.687,139484,1749725913491.9382,271,63,99
1749725913530.562,139429,1749725913511.781,264,59,112
1749725913550.438,139409,1749725913531.625,270,63,106
1749725913570.281,139388,1749725913551.469,270,64,87
1749725913590.094,139384,1749725913571.344,257,65,99
1749725913609.969,139363,1749725913591.156,260,64,104
1749725913629.813,139353,1749725913611.031,249,65,98
1749725913649.688,139306,1749725913630.875,263,63,94
1749725913669.5,139276,1749725913650.75,259,67,91
1749725913689.344,139258,1749725913670.594,258,67,94
1749725913709.25,139243,1749725913690.406,271,70,88
1749725913729.094,139215,1749725913710.312,264,67,99
1749725913748.938,139233,1749725913730.187,263,67,96
1749725913768.812,139244,1749725913750.0,257,63,92
1749725913788.625,139141,1749725913769.875,267,61,100
1749725913808.5,138927,1749725913789.719,268,64,98
1749725913828.3132,138586,1749725913809.562,263,67,94
1749725913848.156,138132,1749725913829.406,263,67,95
1749725913868.0,137725,1749725913849.25,271,63,108
1749725913887.875,137337,1749725913869.063,268,64,95
1749725913907.656,137028,1749725913888.937,255,59,97
1749725913927.531,136828,1749725913908.75,263,63,103
1749725913947.437,136724,1749725913928.625,271,62,95
1749725913967.25,136670,1749725913948.469,259,67,99
1749725913987.094,136678,1749725913968.313,271,67,95
1749725914006.938,136717,1749725913988.187,262,63,96
1749725914026.781,136829,1749725914008.0,243,59,97
1749725914046.656,136915,1749725914027.844,262,60,91
1749725914066.5,136941,1749725914047.719,268,61,99
1749725914086.344,136851,1749725914067.594,284,63,96
1749725914106.219,136667,1749725914087.375,275,67,98
1749725914126.094,136388,1749725914107.281,257,63,97
1749725914145.906,136128,1749725914127.125,244,72,92
1749725914165.781,135816,1749725914147.031,263,63,76
1749725914185.625,135571,1749725914166.844,279,67,91
1749725914205.5,135325,1749725914186.687,276,67,88
1749725914225.437,135076,1749725914206.563,265,70,90
1749725914245.156,134888,1749725914226.406,262,78,84
1749725914265.0,134735,1749725914246.312,271,63,84
1749725914284.844,134599,1749725914266.031,273,61,98
1749725914304.688,134498,1749725914285.906,268,61,102
1749725914324.562,134458,1749725914305.781,263,63,95
1749725914344.406,134506,1749725914325.594,264,55,88
1749725914364.219,134586,1749725914345.438,264,47,93
1749725914384.063,134679,1749725914365.25,252,55,90
1749725914403.875,134800,1749725914385.125,262,55,94
1749725914423.75,134915,1749725914404.938,264,67,81
1749725914443.625,135052,1749725914424.813,260,60,86
1749725914463.531,135208,1749725914444.687,260,62,91
1749725914483.281,135344,1749725914464.531,263,76,89
1749725914503.125,135477,1749725914484.344,271,64,88
1749725914522.937,135630,1749725914504.188,260,62,86
1749725914542.813,135756,1749725914524.031,265,63,79
1749725914562.625,135938,1749725914543.875,264,63,88
1749725914582.5,136124,1749725914563.719,271,59,88
1749725914602.312,136216,1749725914583.563,262,65,71
1749725914622.156,136218,1749725914603.406,278,60,90
1749725914642.0,136158,1749725914623.25,262,63,79
1749725914661.844,136112,1749725914643.094,268,63,79
1749725914681.719,136065,1749725914662.906,265,67,96
1749725914701.562,136059,1749725914682.781,261,63,82
1749725914721.406,136145,1749725914702.625,262,63,77
1749725914741.25,136279,1749725914722.469,270,64,81
1749725914761.156,136462,1749725914742.312,263,67,92
1749725914781.0,136644,1749725914762.187,270,61,94
1749725914800.844,136886,1749725914782.094,265,63,88
1749725914820.719,137171,1749725914801.906,274,79,74
1749725914840.594,137484,1749725914821.781,259,62,88
1749725914860.469,137796,1749725914841.656,272,56,82
1749725914880.344,138093,1749725914861.5,268,67,88
1749725914900.188,138362,1749725914881.438,264,63,79
1749725914920.063,138608,1749725914901.219,270,67,79
1749725914939.9058,138802,1749725914921.219,267,71,79
1749725914959.75,138963,1749725914941.0,265,67,76
1749725914979.594,139095,1749725914960.844,273,63,78
1749725914999.5,139239,1749725914980.656,271,59,78
1749725915019.437,139390,1749725915000.562,268,63,92
1749725915039.219,139521,1749725915020.5,256,63,91
1749725915059.062,139705,1749725915040.281,268,60,86
1749725915078.938,139906,1749725915060.125,263,65,88
1749725915098.781,140098,1749725915080.0,255,62,92
1749725915118.625,140271,1749725915099.844,262,60,92
1749725915138.5,140468,1749725915119.719,259,62,96
1749725915158.375,140674,1749725915139.563,249,63,88
1749725915178.25,140870,1749725915159.469,268,63,92
1749725915198.094,141057,1749725915179.312,263,61,96
1749725915217.937,141239,1749725915199.188,265,56,95
1749725915237.813,141405,1749725915219.0,268,63,96
1749725915257.656,141623,1749725915238.875,267,56,98
1749725915277.5,141852,1749725915258.719,259,59,92
1749725915297.375,142133,1749725915278.594,272,64,97
1749725915317.219,142417,1749725915298.406,262,67,97
1749725915337.094,142692,1749725915318.3442,268,63,100
1749725915356.938,142946,1749725915338.156,261,63,96
1749725915376.812,143126,1749725915358.063,263,63,95
1749725915396.687,143164,1749725915377.906,265,66,94
1749725915416.594,143087,1749725915397.75,260,60,98
1749725915436.375,143002,1749725915417.625,268,62,79
1749725915456.25,142972,1749725915437.469,265,61,96
1749725915476.094,143018,1749725915457.313,259,61,95
1749725915495.969,143151,1749725915477.188,255,71,94
1749725915515.8132,143393,1749725915497.031,254,62,95
1749725915535.656,143749,1749725915516.906,272,62,99
1749725915555.531,144131,1749725915536.719,267,55,103
1749725915575.375,144507,1749725915556.625,268,63,99
1749725915595.188,144838,1749725915576.437,265,57,92
1749725915615.063,145101,1749725915596.281,260,60,83
1749725915634.937,145316,1749725915616.094,268,59,98
1749725915654.812,145427,1749725915636.0,263,64,97
1749725915674.625,145439,1749725915655.906,259,67,102
1749725915694.5,145398,1749725915675.719,249,63,100
1749725915714.344,145338,1749725915695.594,255,63,102
1749725915734.219,145263,1749725915715.406,268,65,87
1749725915754.062,145210,1749725915735.281,271,70,94
1749725915773.906,145200,1749725915755.156,268,63,97
1749725915793.781,145241,1749725915774.937,268,57,94
1749725915813.656,145283,1749725915794.844,259,63,103
1749725915833.5,145420,1749725915814.75,272,59,100
1749725915853.375,145605,1749725915834.563,268,64,87
1749725915873.25,145746,1749725915854.437,252,63,90
1749725915893.062,145932,1749725915874.281,252,72,105
1749725915912.906,146134,1749725915894.156,264,63,104
1749725915932.75,146339,1749725915914.031,264,63,106
1749725915952.625,146551,1749725915933.812,268,63,108
1749725915972.5,146739,1749725915953.687,268,59,99
1749725915992.312,146974,1749725915973.563,267,63,95
1749725916012.187,147238,1749725915993.375,268,64,95
1749725916032.031,147469,1749725916013.25,269,60,99
1749725916051.875,147691,1749725916033.094,270,63,103
1749725916071.719,147893,1749725916052.937,268,65,93
1749725916091.562,148048,1749725916072.813,270,62,95
1749725916111.375,148147,1749725916092.625,263,60,103
1749725916131.25,148186,1749725916112.437,264,64,103
1749725916151.063,148095,1749725916132.312,255,63,96
1749725916170.906,147862,1749725916152.156,264,67,95
1749725916190.781,147496,1749725916171.969,271,61,98
1749725916210.75,147047,1749725916191.844,271,64,99
1749725916230.469,146618,1749725916211.719,282,68,97
1749725916250.344,146186,1749725916231.562,278,60,107
1749725916270.156,145815,1749725916251.375,269,64,103
1749725916290.031,145428,1749725916271.219,254,59,104
1749725916309.875,145053,1749725916291.094,249,55,81
1749725916329.719,144819,1749725916310.937,263,67,90
1749725916349.562,144683,1749725916330.781,263,63,95
1749725916369.437,144664,1749725916350.625,268,60,90
1749725916389.281,144673,1749725916370.5,271,63,97
1749725916409.094,144641,1749725916390.375,259,62,99
1749725916428.969,144649,1749725916410.156,260,64,92
1749725916448.812,144573,1749725916430.031,246,64,89
1749725916468.687,144497,1749725916449.875,263,67,88
1749725916488.5,144377,1749725916469.75,263,63,83
1749725916508.375,144311,1749725916489.562,270,69,67
1749725916528.25,144225,1749725916509.437,263,63,80
1749725916548.062,144154,1749725916529.313,259,63,88
1749725916567.875,144089,1749725916549.094,267,61,68
1749725916587.75,144005,1749725916568.969,268,64,79
1749725916607.563,143960,1749725916588.812,268,56,87
1749725916627.469,143910,1749725916608.656,260,63,87
1749725916647.281,143853,1749725916628.531,260,63,87
1749725916667.125,143807,1749725916648.406,259,63,92
1749725916687.0,143762,1749725916668.219,251,60,92
1749725916706.813,143746,1749725916688.062,255,59,95
1749725916726.656,143740,1749725916707.906,259,63,92
1749725916746.5,143747,1749725916727.75,264,63,83
1749725916766.344,143755,1749725916747.563,260,63,92
1749725916786.188,143749,1749725916767.406,268,60,86
1749725916806.0,143738,1749725916787.25,252,63,97
1749725916825.875,143712,1749725916807.125,255,63,102
1749725916845.719,143693,1749725916826.938,275,72,100
1749725916865.563,143698,1749725916846.781,263,63,100
1749725916885.406,143713,1749725916866.656,268,63,100
1749725916905.25,143765,1749725916886.5,267,63,114
1749725916925.094,143842,1749725916906.344,259,64,110
1749725916944.969,143956,1749725916926.188,255,63,108
1749725916964.781,144086,1749725916946.031,263,63,95
1749725916984.594,144178,1749725916965.875,263,63,110
1749725917004.437,144195,1749725916985.656,271,59,97
1749725917024.312,144082,1749725917005.5,272,57,107
1749725917044.125,143845,1749725917025.4058,265,63,110
1749725917063.938,143576,1749725917045.187,265,59,108
1749725917083.813,143295,1749725917065.031,257,56,114
1749725917103.625,143057,1749725917084.875,252,55,110
1749725917123.469,142855,1749725917104.688,271,49,107
1749725917143.281,142698,1749725917124.531,263,55,110
1749725917163.125,142593,1749725917144.406,264,60,108
1749725917182.969,142552,1749725917164.187,256,39,115
1749725917202.844,142524,1749725917184.031,251,60,114
1749725917222.656,142570,1749725917203.906,250,60,119
1749725917242.469,142627,1749725917223.719,249,59,124
1749725917262.344,142695,1749725917243.562,263,63,116
1749725917282.156,142777,1749725917263.406,268,57,122
1749725917302.031,142808,1749725917283.219,271,57,117
1749725917321.844,142831,1749725917303.094,264,57,124
1749725917341.656,142845,1749725917322.906,268,64,115
1749725917361.5,142804,1749725917342.719,268,59,115
1749725917381.5,142748,1749725917362.531,259,55,111
1749725917401.187,142679,1749725917382.531,251,59,106
1749725917421.031,142606,1749725917402.281,248,60,108
1749725917440.875,142535,1749725917422.094,248,63,112
1749725917460.75,142464,1749725917441.937,256,64,115
1749725917480.531,142414,1749725917461.812,260,57,115
1749725917500.5,142370,1749725917481.625,259,57,120
1749725917520.219,142347,1749725917501.469,253,63,112
1749725917540.094,142341,1749725917521.281,260,59,120
1749725917559.906,142354,1749725917541.156,267,59,122
1749725917579.719,142382,1749725917561.0,268,65,127
1749725917599.625,142438,1749725917580.812,263,63,135
1749725917619.437,142515,1749725917600.625,260,64,125
1749725917639.281,142648,1749725917620.5,250,65,136
1749725917659.125,142767,1749725917640.375,259,60,134
1749725917678.969,142898,1749725917660.187,262,58,118
1749725917698.812,143006,1749725917680.031,252,57,115
1749725917718.719,143093,1749725917699.906,243,55,115
1749725917738.469,143190,1749725917719.781,246,62,120
1749725917758.344,143227,1749725917739.562,259,63,124
1749725917778.188,143288,1749725917759.437,259,67,124
1749725917798.031,143375,1749725917779.25,253,75,130
1749725917817.875,143477,1749725917799.094,264,63,140
1749725917837.719,143614,1749725917818.969,267,80,132
1749725917857.563,143775,1749725917838.781,255,63,156
1749725917877.437,143940,1749725917858.687,259,64,135
1749725917897.219,144086,1749725917878.531,253,49,135
1749725917917.094,144090,1749725917898.313,255,57,129
1749725917936.938,143941,1749725917918.156,259,55,132
1749725917956.781,143704,1749725917938.031,264,59,128
1749725917976.625,143427,1749725917957.844,252,59,134
1749725917996.469,143152,1749725917977.719,255,59,131
1749725918016.313,142903,1749725917997.531,241,62,131
1749725918036.188,142694,1749725918017.375,248,60,138
1749725918056.125,142577,1749725918037.25,255,63,126
1749725918075.844,142488,1749725918057.188,249,59,134
1749725918095.719,142428,1749725918076.906,248,63,140
1749725918115.625,142406,1749725918096.781,251,65,131
1749725918135.375,142391,1749725918116.625,259,88,132
1749725918155.219,142422,1749725918136.469,262,59,134
1749725918175.062,142479,1749725918156.281,260,65,112
1749725918194.906,142530,1749725918176.125,243,56,120
1749725918214.75,142574,1749725918195.969,249,63,134
1749725918234.531,142609,1749725918215.812,252,62,136
1749725918254.406,142637,1749725918235.625,254,63,127
1749725918274.281,142623,1749725918255.469,265,60,135
1749725918294.094,142592,1749725918275.313,259,65,119
1749725918313.906,142569,1749725918295.156,270,62,127
1749725918333.75,142551,1749725918315.0,255,62,135
1749725918353.594,142580,1749725918334.812,263,59,134
1749725918373.469,142598,1749725918354.656,248,55,137
1749725918393.281,142645,1749725918374.5,259,60,134
1749725918413.156,142726,1749725918394.344,263,53,138
1749725918433.0,142776,1749725918414.219,251,59,135
1749725918452.875,142884,1749725918434.062,268,57,143
1749725918472.687,142968,1749725918453.906,258,68,120
1749725918492.563,143049,1749725918473.813,248,63,132
1749725918512.438,143132,1749725918493.625,244,57,135
1749725918532.25,143202,1749725918513.5,248,56,127
1749725918552.094,143269,1749725918533.344,247,56,135
1749725918571.937,143316,1749725918553.156,255,59,121
1749725918591.813,143391,1749725918572.969,261,60,123
1749725918611.656,143469,1749725918592.844,263,64,123
1749725918631.5,143550,1749725918612.687,263,57,115
1749725918651.312,143619,1749725918632.5632,251,61,136
1749725918671.187,143679,1749725918652.375,259,63,135
1749725918691.063,143769,1749725918672.25,248,63,127
1749725918710.938,143846,1749725918692.125,263,63,138
1749725918730.719,143944,1749725918711.969,258,64,131
1749725918750.594,144072,1749725918731.813,254,63,135
1749725918770.469,144228,1749725918751.656,255,60,142
1749725918790.313,144414,1749725918771.531,259,63,143
1749725918810.156,144540,1749725918791.375,252,67,136
1749725918830.031,144703,1749725918811.219,259,55,135
1749725918849.906,144827,1749725918831.094,250,56,127
1749725918869.781,144827,1749725918850.969,249,60,135
1749725918889.594,144699,1749725918870.875,252,63,127
1749725918909.437,144413,1749725918890.656,249,63,134
1749725918929.281,144043,1749725918910.5,255,59,135
1749725918949.156,143657,1749725918930.344,259,60,135
1749725918968.9382,143306,1749725918950.219,262,63,134
1749725918988.812,143037,1749725918970.031,271,63,139
1749725919008.656,142833,1749725918989.875,255,63,127
1749725919028.5,142725,1749725919009.719,239,63,111
1749725919048.344,142638,1749725919029.562,259,62,126
1749725919068.188,142632,1749725919049.469,248,63,138
1749725919088.031,142618,1749725919069.25,264,59,139
1749725919107.875,142653,1749725919089.094,260,55,137
1749725919127.719,142719,1749725919108.938,252,64,142
1749725919147.531,142789,1749725919128.781,254,71,139
1749725919167.375,142854,1749725919148.594,255,63,137
1749725919187.25,142920,1749725919168.437,255,63,135
1749725919207.094,142964,1749725919188.313,252,61,128
1749725919226.938,143008,1749725919208.188,255,61,139
1749725919246.781,143038,1749725919228.0,263,63,134
1749725919266.656,143053,1749725919247.844,259,60,140
1749725919286.469,143071,1749725919267.688,251,64,126
1749725919306.344,143096,1749725919287.594,247,59,140
1749725919326.188,143153,1749725919307.375,248,60,127
1749725919346.125,143200,1749725919327.25,247,61,142
1749725919365.906,143274,1749725919347.188,252,61,140
1749725919385.687,143349,1749725919366.9382,252,55,127
1749725919405.562,143427,1749725919386.781,254,62,135
1749725919425.406,143546,1749725919406.625,256,63,135
1749725919445.25,143645,1749725919426.469,259,60,137
1749725919465.156,143789,1749725919446.312,260,63,140
1749725919484.906,143910,1749725919466.125,245,65,127
1749725919504.875,144038,1749725919486.0,248,63,136
1749725919524.625,144181,1749725919505.8442,254,72,127
1749725919544.4692,144298,1749725919525.719,248,61,144
1749725919564.312,144438,1749725919545.563,248,60,142
1749725919584.156,144564,1749725919565.406,252,63,140
1749725919604.0,144643,1749725919585.344,257,60,135
1749725919623.813,144783,1749725919605.062,255,63,135
1749725919643.656,144886,1749725919624.937,260,60,134
1749725919663.5,145005,1749725919644.719,259,59,136
1749725919683.375,145128,1749725919664.563,257,60,137
1749725919703.188,145242,1749725919684.438,240,59,131
1749725919723.031,145386,1749725919704.281,263,61,131
1749725919742.906,145507,1749725919724.094,259,63,130
1749725919762.719,145647,1749725919743.969,260,60,132
1749725919782.562,145790,1749725919763.781,259,55,137
1749725919802.406,145937,1749725919783.6558,271,55,135
1749725919822.25,146050,1749725919803.469,249,61,120
1749725919842.156,146202,1749725919823.312,255,59,143
1749725919861.969,146332,1749725919843.219,243,59,138
1749725919881.813,146434,1749725919863.031,246,59,139
1749725919901.625,146490,1749725919882.875,257,62,137
1749725919921.531,146405,1749725919902.687,259,59,140
1749725919941.344,146188,1749725919922.594,259,53,134
1749725919961.156,145910,1749725919942.375,259,64,134
1749725919980.969,145611,1749725919962.25,255,63,135
1749725920000.844,145304,1749725919982.031,250,62,136
1749725920020.75,145066,1749725920001.906,249,59,127
1749725920040.5,144926,1749725920021.813,256,60,135
1749725920060.469,144828,1749725920041.563,255,64,135
1749725920080.219,144750,1749725920061.531,257,56,131
1749725920100.063,144776,1749725920081.25,255,71,124
1749725920119.875,144778,1749725920101.125,262,60,135
1749725920139.719,144827,1749725920121.0,248,59,142
1749725920159.531,144888,1749725920140.781,259,55,127
1749725920179.406,144937,1749725920160.594,262,59,134
1749725920199.219,144978,1749725920180.5,252,59,128
1749725920219.094,145013,1749725920200.312,259,57,140
1749725920238.937,145010,1749725920220.156,249,56,138
1749725920258.781,144987,1749725920240.0,249,59,137
1749725920278.625,144964,1749725920259.844,262,59,131
1749725920298.438,144931,1749725920279.719,255,63,135
1749725920318.281,144916,1749725920299.531,255,59,134
1749725920338.187,144936,1749725920319.375,259,71,143
1749725920358.031,144961,1749725920339.25,261,53,139
1749725920377.844,145007,1749725920359.062,283,55,134
1749725920397.688,145080,1749725920378.906,247,63,135
1749725920417.531,145159,1749725920398.719,259,59,127
1749725920437.406,145285,1749725920418.594,247,64,134
1749725920457.219,145408,1749725920438.5,248,55,142
1749725920477.063,145558,1749725920458.312,254,61,143
1749725920496.906,145674,1749725920478.094,252,62,140
1749725920516.781,145787,1749725920498.0,247,59,135
1749725920536.562,145890,1749725920517.844,252,59,132
1749725920556.438,145977,1749725920537.656,255,57,134
1749725920576.281,146052,1749725920557.5,262,58,127
1749725920596.125,146136,1749725920577.375,255,62,127
1749725920615.937,146220,1749725920597.188,254,62,132
1749725920635.875,146309,1749725920617.031,259,57,138
1749725920655.688,146414,1749725920636.937,252,62,143
1749725920675.469,146491,1749725920656.719,259,59,131
1749725920695.312,146572,1749725920676.562,248,63,137
1749725920715.125,146680,1749725920696.406,239,56,143
1749725920735.0,146759,1749725920716.188,251,63,140
1749725920754.875,146855,1749725920736.063,255,63,138
1749725920774.688,146976,1749725920755.937,248,64,126
1749725920794.531,147074,1749725920775.75,248,64,135
1749725920814.344,147177,1749725920795.594,244,56,136
1749725920834.187,147297,1749725920815.406,259,58,140
1749725920854.031,147407,1749725920835.281,263,63,134
1749725920873.813,147463,1749725920855.094,252,63,140
1749725920893.687,147410,1749725920874.906,248,59,139
1749725920913.5,147210,1749725920894.719,252,63,140
1749725920933.344,146934,1749725920914.563,255,59,138
1749725920953.188,146614,1749725920934.406,248,63,140
1749725920973.0,146274,1749725920954.25,257,59,131
1749725920992.844,145976,1749725920974.094,248,55,140
1749725921012.687,145759,1749725920993.906,259,59,134
1749725921032.562,145608,1749725921013.75,259,55,134
1749725921052.344,145531,1749725921033.594,261,76,131
1749725921072.188,145492,1749725921053.406,260,59,131
1749725921092.031,145457,1749725921073.25,254,63,138
1749725921111.906,145485,1749725921093.094,260,55,125
1749725921131.687,145505,1749725921112.938,259,51,131
1749725921151.531,145572,1749725921132.781,254,57,135
1749725921171.375,145635,1749725921152.625,246,63,142
1749725921191.25,145718,1749725921172.406,252,60,139
1749725921211.031,145890,1749725921192.281,248,56,142
1749725921230.875,146086,1749725921212.125,257,59,145
1749725921250.75,146281,1749725921231.938,252,57,140
1749725921270.563,146461,1749725921251.812,246,60,138
1749725921290.406,146607,1749725921271.625,248,63,135
1749725921310.25,146762,1749725921291.5,249,61,142
1749725921330.062,146864,1749725921311.313,252,57,135
1749725921349.906,146974,1749725921331.125,252,57,135
1749725921369.75,147065,1749725921350.969,246,64,137
1749725921389.563,147161,1749725921370.781,252,64,128
1749725921409.406,147214,1749725921390.656,248,58,132
1749725921429.25,147295,1749725921410.469,247,63,136
1749725921449.094,147357,1749725921430.281,252,59,144
1749725921468.906,147407,1749725921450.156,253,59,139
1749725921488.719,147455,1749725921470.0,248,63,143
1749725921508.562,147505,1749725921489.781,255,54,135
1749725921528.437,147566,1749725921509.625,262,59,135
1749725921548.219,147593,1749725921529.5,252,59,132
1749725921568.063,147631,1749725921549.312,260,55,132
1749725921587.969,147691,1749725921569.156,261,60,135
1749725921607.75,147746,1749725921589.0,248,61,131
1749725921627.594,147790,1749725921608.813,246,63,135
1749725921647.406,147841,1749725921628.656,247,60,135
1749725921667.25,147914,1749725921648.469,247,71,142
1749725921687.094,147976,1749725921668.344,259,63,142
1749725921706.969,148079,1749725921688.156,247,63,143
1749725921726.75,148218,1749725921708.0,246,55,144
1749725921746.594,148370,1749725921727.813,249,63,137
1749725921766.438,148555,1749725921747.656,251,63,126
1749725921786.281,148740,1749725921767.5,249,64,135
1749725921806.125,148870,1749725921787.344,248,64,142
1749725921825.937,148903,1749725921807.219,248,62,142
1749725921845.813,148800,1749725921827.0,270,60,143
1749725921865.656,148603,1749725921846.875,255,62,140
1749725921885.438,148323,1749725921866.719,243,58,140
1749725921905.312,148010,1749725921886.531,257,55,137
1749725921925.125,147737,1749725921906.344,255,55,131
1749725921944.969,147530,1749725921926.188,248,62,135
1749725921964.844,147361,1749725921946.031,249,59,143
1749725921984.688,147256,1749725921965.906,248,58,142
1749725922004.469,147209,1749725921985.719,251,70,135
1749725922024.344,147182,1749725922005.531,248,60,137
1749725922044.156,147219,1749725922025.375,259,55,127
1749725922064.0,147250,1749725922045.219,260,64,147
1749725922083.844,147283,1749725922065.094,259,63,136
1749725922103.656,147336,1749725922084.906,249,63,133
1749725922123.5,147369,1749725922104.688,252,63,139
1749725922143.312,147404,1749725922124.594,248,62,142
1749725922163.156,147402,1749725922144.375,252,63,142
1749725922183.0,147388,1749725922164.219,256,57,141
1749725922202.844,147361,1749725922184.062,259,59,134
1749725922222.656,147328,1749725922203.906,264,57,143
1749725922242.5,147317,1749725922223.719,259,58,137
1749725922262.344,147321,1749725922243.562,248,56,135
1749725922282.188,147363,1749725922263.406,271,66,140
1749725922302.062,147404,1749725922283.25,254,57,123
1749725922321.906,147427,1749725922303.125,254,59,134
1749725922341.719,147489,1749725922322.969,260,55,143
1749725922361.594,147542,1749725922342.844,261,58,137
1749725922381.406,147621,1749725922362.656,248,60,131
1749725922401.219,147694,1749725922382.437,262,57,131
1749725922421.062,147772,1749725922402.344,260,60,143
1749725922440.906,147847,1749725922422.125,261,55,138
1749725922460.75,147932,1749725922442.062,242,59,131
1749725922480.563,148018,1749725922461.844,249,63,140
1749725922500.406,148100,1749725922481.656,251,60,129
1749725922520.25,148205,1749725922501.469,248,71,127
1749725922540.094,148297,1749725922521.313,249,63,142
1749725922559.875,148383,1749725922541.156,287,60,135
1749725922579.719,148492,1749725922561.0,263,58,138
1749725922599.562,148586,1749725922580.781,259,55,139
1749725922619.375,148677,1749725922600.594,258,71,137
1749725922639.25,148779,1749725922620.469,258,62,137
1749725922659.031,148869,1749725922640.312,258,59,135
1749725922678.875,148962,1749725922660.125,247,59,147
1749725922698.719,149086,1749725922679.9368,249,60,137
1749725922718.531,149196,1749725922699.781,259,63,135
1749725922738.375,149217,1749725922719.625,247,56,140
1749725922758.219,149110,1749725922739.438,262,60,137
1749725922778.063,148903,1749725922759.25,259,57,137
1749725922797.906,148593,1749725922779.125,248,62,139
1749725922817.687,148270,1749725922798.938,259,62,138
1749725922837.531,147974,1749725922818.781,256,59,134
1749725922857.375,147723,1749725922838.563,263,63,132
1749725922877.25,147555,1749725922858.437,259,59,138
1749725922897.031,147468,1749725922878.281,247,80,134
1749725922916.812,147397,1749725922898.094,247,60,135
1749725922936.656,147379,1749725922917.906,246,59,129
1749725922956.469,147402,1749725922937.75,255,56,127
1749725922976.344,147443,1749725922957.531,249,60,138
1749725922996.125,147504,1749725922977.406,248,60,140
1749725923015.969,147563,1749725922997.25,251,63,140
1749725923035.812,147616,1749725923017.031,254,59,140
1749725923055.625,147643,1749725923036.906,248,58,140
1749725923075.469,147663,1749725923056.6558,255,62,138
1749725923095.281,147639,1749725923076.531,259,59,134
1749725923115.094,147619,1749725923096.344,243,57,132
1749725923134.969,147601,1749725923116.188,259,57,127
1749725923154.781,147573,1749725923136.063,252,63,134
1749725923174.594,147574,1749725923155.844,255,60,142
1749725923194.406,147587,1749725923175.687,257,55,134
1749725923214.25,147622,1749725923195.5,257,62,135
1749725923234.125,147668,1749725923215.312,253,63,147
1749725923253.906,147740,1749725923235.188,260,49,140
1749725923273.75,147803,1749725923254.969,255,60,125
1749725923293.594,147887,1749725923274.812,250,63,131
1749725923313.469,147977,1749725923294.656,248,59,139
1749725923333.281,148065,1749725923314.531,260,62,142
1749725923353.094,148192,1749725923334.438,254,61,142
1749725923372.937,148258,1749725923354.156,248,63,142
1749725923392.813,148377,1749725923374.0,253,63,131
1749725923412.688,148496,1749725923393.875,251,63,139
1749725923432.531,148581,1749725923413.719,262,55,123
1749725923452.281,148690,1749725923433.594,240,60,134
1749725923472.156,148808,1749725923453.344,262,57,133
1749725923491.969,148901,1749725923473.219,248,61,131
1749725923511.813,148992,1749725923493.062,256,47,140
1749725923531.656,149087,1749725923512.906,256,60,139
1749725923551.5,149212,1749725923532.719,248,59,140
1749725923571.375,149321,1749725923552.563,259,56,137
1749725923591.188,149423,1749725923572.437,254,52,135
1749725923611.031,149537,1749725923592.281,257,60,140
1749725923630.875,149558,1749725923612.094,259,55,124
1749725923650.781,149487,1749725923631.938,251,60,143
1749725923670.563,149303,1749725923651.813,249,64,141
1749725923690.438,149031,1749725923671.6868,259,62,140
1749725923710.312,148699,1749725923691.5,259,59,142
1749725923730.156,148418,1749725923711.375,243,63,143
1749725923750.0,148192,1749725923731.219,251,64,140
1749725923769.844,148027,1749725923751.094,249,62,138
1749725923789.719,147939,1749725923770.906,251,57,144
1749725923809.594,147873,1749725923790.781,260,63,144
1749725923829.406,147882,1749725923810.656,259,62,135
1749725923849.25,147880,1749725923830.5,241,51,140
1749725923869.125,147950,1749725923850.312,246,58,135
1749725923888.969,148014,1749725923870.187,252,60,134
1749725923908.812,148077,1749725923890.031,251,56,127
1749725923928.656,148126,1749725923909.906,259,60,134
1749725923948.5,148167,1749725923929.719,262,56,131
1749725923968.375,148165,1749725923949.594,259,58,138
1749725923988.25,148134,1749725923969.406,262,61,134
1749725924008.0618,148125,1749725923989.313,252,62,116
1749725924027.906,148060,1749725924009.125,260,62,139
1749725924047.813,148036,1749725924028.969,255,63,139
1749725924067.656,148012,1749725924048.844,262,80,127
1749725924087.5,148009,1749725924068.719,263,67,139
1749725924107.344,147991,1749725924088.563,263,60,135
1749725924127.188,148007,1749725924108.406,243,59,137
1749725924147.063,148041,1749725924128.25,251,59,144
1749725924167.0,148075,1749725924148.125,251,64,135
1749725924186.781,148138,1749725924167.969,256,88,133
1749725924206.625,148164,1749725924187.844,260,60,134
1749725924226.5,148228,1749725924207.687,256,59,138
1749725924246.312,148293,1749725924227.531,246,55,128
1749725924266.156,148342,1749725924247.375,248,63,137
1749725924286.0,148393,1749725924267.25,248,62,135
1749725924305.875,148448,1749725924287.062,259,60,131
1749725924325.688,148518,1749725924306.937,252,62,132
1749725924345.531,148565,1749725924326.781,255,65,138
1749725924365.406,148624,1749725924346.563,246,65,127
1749725924385.281,148686,1749725924366.469,259,57,135
1749725924405.063,148755,1749725924386.344,249,61,135
1749725924424.937,148830,1749725924406.156,263,63,138
1749725924444.781,148896,1749725924426.0,251,60,127
1749725924464.656,148847,1749725924445.844,240,59,142
1749725924484.625,148676,1749725924465.719,247,63,135
1749725924504.344,148422,1749725924485.687,241,57,131
1749725924524.187,148112,1749725924505.406,257,62,135
1749725924544.062,147757,1749725924525.25,263,62,142
1749725924563.875,147458,1749725924545.125,260,57,140
1749725924583.719,147232,1749725924564.969,259,51,128
1749725924603.594,147054,1749725924584.812,259,63,135
1749725924623.437,146963,1749725924604.656,260,58,137
1749725924643.281,146897,1749725924624.5,262,59,128
1749725924663.125,146876,1749725924644.375,243,61,132
1749725924682.969,146911,1749725924664.187,244,62,143
1749725924702.844,146931,1749725924684.031,243,63,141
1749725924722.719,146992,1749725924703.906,254,59,127
1749725924742.563,147026,1749725924723.813,248,59,131
1749725924762.469,147073,1749725924743.656,255,62,135
1749725924782.312,147091,1749725924763.531,248,59,143
1749725924802.125,147089,1749725924783.375,254,57,142
1749725924821.969,147052,1749725924803.25,255,63,134
1749725924841.813,147008,1749725924823.031,249,61,138
1749725924861.688,147002,1749725924842.906,247,70,137
1749725924881.531,146958,1749725924862.75,251,60,139
1749725924901.406,146959,1749725924882.625,247,59,135
1749725924921.281,146963,1749725924902.469,260,59,143
1749725924941.156,147010,1749725924922.375,243,63,140
1749725924960.969,147035,1749725924942.219,259,61,135
1749725924980.844,147095,1749725924962.063,248,63,135
1749725925000.719,147138,1749725924981.875,249,59,131
1749725925020.563,147231,1749725925001.781,259,63,128
1749725925040.437,147298,1749725925021.656,248,56,127
1749725925060.281,147395,1749725925041.531,251,63,132
1749725925080.125,147472,1749725925061.344,255,60,135
1749725925100.0,147573,1749725925081.187,248,57,134
1749725925119.813,147675,1749725925101.031,255,64,133
1749725925139.687,147757,1749725925120.906,248,57,138
1749725925159.531,147862,1749725925140.75,246,62,133
1749725925179.4382,147940,1749725925160.594,252,62,134
1749725925199.25,148040,1749725925180.469,256,55,138
1749725925219.125,148132,1749725925200.375,259,60,127
1749725925239.062,148236,1749725925220.188,255,62,136
1749725925258.844,148323,1749725925240.063,260,72,123
1749725925278.656,148427,1749725925259.906,260,55,132
1749725925298.531,148525,1749725925279.781,248,63,131
1749725925318.406,148505,1749725925299.594,254,59,140
1749725925338.25,148383,1749725925319.469,248,55,135
1749725925358.063,148125,1749725925339.344,255,62,142
1749725925377.938,147763,1749725925359.156,246,60,143
1749725925397.812,147367,1749725925379.0,246,61,143
1749725925417.656,147025,1749725925398.875,259,62,127
1749725925437.5,146745,1749725925418.719,248,63,142
1749725925457.344,146520,1749725925438.594,257,63,135
1749725925477.188,146384,1749725925458.375,255,59,135
1749725925497.062,146286,1749725925478.25,246,57,127
1749725925516.906,146221,1749725925498.125,259,60,135
1749725925536.719,146201,1749725925518.0,257,54,139
1749725925556.625,146219,1749725925537.781,255,55,126
1749725925576.5,146219,1749725925557.687,255,59,135
1749725925596.344,146267,1749725925577.531,257,64,136
1749725925616.188,146265,1749725925597.406,251,63,126
1749725925636.0,146249,1749725925617.219,259,59,135
1749725925655.875,146217,1749725925637.062,257,61,136
1749725925675.75,146140,1749725925656.938,247,63,134
1749725925695.5618,146087,1749725925676.781,259,65,128
1749725925715.438,145991,1749725925696.687,246,60,135
1749725925735.313,145924,1749725925716.5,249,55,137
1749725925755.125,145863,1749725925736.375,248,57,143
1749725925775.0,145810,1749725925756.219,249,57,136
1749725925794.844,145770,1749725925776.063,255,62,139
1749725925814.719,145787,1749725925795.906,262,63,135
1749725925834.594,145785,1749725925815.75,260,57,136
1749725925854.406,145807,1749725925835.594,263,51,121
1749725925874.25,145820,1749725925855.469,255,60,135
1749725925894.125,145848,1749725925875.344,251,63,135
1749725925913.969,145876,1749725925895.187,243,57,140
1749725925933.812,145932,1749725925915.062,252,55,132
1749725925953.687,145981,1749725925934.906,247,63,142
1749725925973.531,146024,1749725925954.75,254,60,134
1749725925993.406,146072,1749725925974.625,259,60,119
1749725926013.25,146129,1749725925994.5,248,60,140
1749725926033.094,146190,1749725926014.313,248,63,135
1749725926052.937,146267,1749725926034.156,252,59,136
1749725926072.781,146310,1749725926053.969,260,58,121
1749725926092.594,146388,1749725926073.844,255,63,140
1749725926112.469,146467,1749725926093.687,271,60,135
1749725926132.312,146531,1749725926113.531,259,63,130
1749725926152.156,146605,1749725926133.406,259,60,127
1749725926172.0,146679,1749725926153.219,250,62,142
1749725926191.875,146759,1749725926173.125,259,59,134
1749725926211.719,146859,1749725926192.938,264,62,139
1749725926231.531,146925,1749725926212.781,260,62,140
1749725926251.406,146982,1749725926232.594,248,58,142
1749725926271.219,146891,1749725926252.469,246,51,131
1749725926291.063,146677,1749725926272.312,255,62,136
1749725926310.937,146355,1749725926292.156,254,60,133
1749725926330.781,145951,1749725926312.0,248,60,128
1749725926350.688,145570,1749725926331.875,255,63,142
1749725926370.469,145243,1749725926351.719,248,66,127
1749725926390.344,144993,1749725926371.531,259,61,143
1749725926410.156,144843,1749725926391.406,249,61,135
1749725926430.031,144733,1749725926411.281,249,59,134
1749725926449.875,144654,1749725926431.094,246,59,138
1749725926469.719,144622,1749725926450.969,249,63,134
1749725926489.562,144619,1749725926470.813,248,59,136
1749725926509.406,144642,1749725926490.656,248,60,138
1749725926529.281,144651,1749725926510.469,255,60,140
1749725926549.125,144685,1749725926530.344,263,56,135
1749725926568.938,144708,1749725926550.156,252,59,137
1749725926588.812,144656,1749725926570.0,248,59,137
1749725926608.594,144658,1749725926589.813,257,70,133
1749725926628.469,144593,1749725926609.656,262,59,135
1749725926648.281,144543,1749725926629.531,243,67,144
1749725926668.156,144520,1749725926649.344,248,62,144
1749725926688.0,144487,1749725926669.25,254,57,135
1749725926707.844,144470,1749725926689.031,260,59,124
1749725926727.719,144463,1749725926708.906,248,59,135
1749725926747.5,144490,1749725926728.781,248,63,131
1749725926767.344,144520,1749725926748.562,260,59,126
1749725926787.187,144579,1749725926768.406,257,64,127
1749725926807.062,144598,1749725926788.25,263,64,138
1749725926826.875,144682,1749725926808.094,249,55,123
1749725926846.719,144740,1749725926827.969,258,57,135
1749725926866.594,144810,1749725926847.781,259,59,134
1749725926886.406,144890,1749725926867.656,252,57,131
1749725926906.25,144968,1749725926887.469,252,60,135
1749725926926.125,145049,1749725926907.344,254,63,134
1749725926945.938,145104,1749725926927.187,252,63,132
1749725926965.812,145193,1749725926947.031,248,57,138
1749725926985.656,145276,1749725926966.875,248,57,134
1749725927005.531,145350,1749725926986.75,250,63,127
1749725927025.4058,145416,1749725927006.594,249,59,138
1749725927045.25,145505,1749725927026.437,255,64,131
1749725927065.094,145583,1749725927046.313,252,63,134
1749725927084.938,145668,1749725927066.156,258,62,127
1749725927104.781,145766,1749725927086.0,254,62,131
1749725927124.625,145859,1749725927105.844,247,59,142
1749725927144.5,145936,1749725927125.688,254,59,131
1749725927164.344,146034,1749725927145.594,240,62,131
1749725927184.219,146146,1749725927165.375,259,64,134
1749725927204.094,146165,1749725927185.25,248,61,134
1749725927223.937,146071,1749725927205.156,247,54,135
1749725927243.781,145846,1749725927225.0,251,63,140
1749725927263.688,145522,1749725927244.844,246,62,135
1749725927283.5,145171,1749725927264.687,247,64,135
1749725927303.375,144830,1749725927284.562,255,57,144
1749725927323.187,144548,1749725927304.406,249,61,138
1749725927343.062,144347,1749725927324.344,252,59,128
1749725927362.938,144211,1749725927344.125,255,59,139
1749725927382.812,144144,1749725927364.0,262,60,140
1749725927402.625,144118,1749725927383.844,251,64,131
1749725927422.5,144107,1749725927403.656,258,55,121
1749725927442.344,144125,1749725927423.563,247,63,135
1749725927462.219,144200,1749725927443.406,255,60,135
1749725927482.062,144265,1749725927463.312,246,56,132
1749725927501.906,144303,1749725927483.125,255,60,139
1749725927521.781,144320,1749725927502.938,259,59,135
1749725927541.656,144324,1749725927522.875,248,60,135
1749725927561.469,144310,1749725927542.719,255,57,138
1749725927581.312,144275,1749725927562.531,261,60,127
1749725927601.156,144251,1749725927582.375,252,62,134
1749725927620.969,144257,1749725927602.219,260,60,131
1749725927640.781,144237,1749725927622.031,257,57,134
1749725927660.625,144260,1749725927641.844,259,64,127
1749725927680.5,144295,1749725927661.688,255,60,136
1749725927700.469,144331,1749725927681.594,249,59,138
1749725927720.156,144421,1749725927701.437,249,70,125
1749725927740.031,144493,1749725927721.344,257,60,135
1749725927759.875,144581,1749725927741.094,259,56,135
1749725927779.719,144632,1749725927760.938,260,62,140
1749725927799.531,144735,1749725927780.781,259,57,134
1749725927819.406,144818,1749725927800.656,248,59,136
1749725927839.219,144931,1749725927820.469,266,63,129
1749725927859.094,145037,1749725927840.281,262,56,135
1749725927878.906,145123,1749725927860.125,263,57,142
1749725927898.75,145231,1749725927880.0,270,57,135
1749725927918.594,145322,1749725927899.812,248,63,134
1749725927938.562,145444,1749725927919.656,259,60,142
1749725927958.312,145539,1749725927939.563,246,68,123
1749725927978.156,145647,1749725927959.375,247,56,140
1749725927997.969,145763,1749725927979.188,251,63,130
1749725928017.813,145878,1749725927999.062,247,60,140
1749725928037.688,145984,1749725928018.906,252,63,134
1749725928057.5,146105,1749725928038.75,243,63,140
1749725928077.344,146220,1749725928058.594,257,63,135
1749725928097.188,146310,1749725928078.406,255,60,142
1749725928117.031,146443,1749725928098.312,252,61,136
1749725928136.844,146568,1749725928118.094,250,62,137
1749725928156.687,146701,1749725928137.938,252,63,138
1749725928176.531,146835,1749725928157.781,243,60,127
1749725928196.406,146894,1749725928177.594,259,59,135
1749725928216.188,146804,1749725928197.437,248,60,142
1749725928236.031,146622,1749725928217.281,255,58,139
1749725928255.906,146310,1749725928237.125,259,57,139
1749725928275.75,145938,1749725928256.938,247,55,131
1749725928295.563,145591,1749725928276.813,249,55,135
1749725928315.406,145270,1749725928296.656,259,62,136
1749725928335.219,145048,1749725928316.437,262,64,135
1749725928355.094,144910,1749725928336.281,260,60,136
1749725928374.937,144845,1749725928356.094,255,55,123
1749725928394.75,144888,1749725928376.0,262,63,132
1749725928414.594,144961,1749725928395.812,270,63,142
1749725928434.469,145078,1749725928415.656,271,61,144
1749725928454.281,145203,1749725928435.531,267,59,136
1749725928474.094,145323,1749725928455.344,259,63,139
1749725928493.969,145414,1749725928475.188,255,60,124
1749725928513.813,145486,1749725928495.0,260,56,123
1749725928533.687,145509,1749725928514.906,259,59,113
1749725928553.5,145497,1749725928534.75,255,59,112
1749725928573.375,145455,1749725928554.625,256,63,104
1749725928593.219,145382,1749725928574.437,249,59,123
1749725928613.094,145285,1749725928594.281,251,62,131
1749725928632.875,145232,1749725928614.125,255,60,95
1749725928652.75,145156,1749725928634.0,248,58,113
1749725928672.594,145102,1749725928653.781,253,59,119
1749725928692.469,145067,1749725928673.656,255,57,122
1749725928712.312,145072,1749725928693.531,251,55,131
1749725928732.156,145126,1749725928713.406,260,56,124
1749725928752.0,145176,1749725928733.219,278,59,123
1749725928771.875,145242,1749725928753.094,262,55,119
1749725928791.656,145316,1749725928772.906,257,59,111
1749725928811.5,145407,1749725928792.75,248,57,118
1749725928831.375,145473,1749725928812.563,263,63,118
1749725928851.219,145521,1749725928832.438,255,67,118
1749725928871.063,145593,1749725928852.312,262,71,124
1749725928890.938,145649,1749725928872.125,255,63,126
1749725928910.75,145756,1749725928892.0,248,63,128
1749725928930.656,145879,1749725928911.813,247,60,134
1749725928950.469,146019,1749725928931.719,259,60,138
1749725928970.281,146163,1749725928951.531,254,60,129
1749725928990.2192,146285,1749725928971.344,252,57,138
1749725929009.969,146432,1749725928991.219,248,64,132
1749725929029.812,146535,1749725929011.094,246,58,142
1749725929049.625,146612,1749725929030.875,255,56,140
1749725929069.469,146697,1749725929050.687,248,57,137
1749725929089.344,146744,1749725929070.531,255,51,139
1749725929109.312,146798,1749725929090.406,257,52,140
1749725929129.0,146837,1749725929110.375,253,55,146
1749725929148.844,146879,1749725929130.094,254,62,126
1749725929168.719,146909,1749725929149.906,255,61,132
1749725929188.531,146949,1749725929169.812,257,54,131
1749725929208.375,146914,1749725929189.625,257,63,131
1749725929228.313,146736,1749725929209.469,260,67,127
1749725929248.063,146420,1749725929229.281,259,72,127
1749725929267.906,146044,1749725929249.125,259,63,134
1749725929287.75,145618,1749725929269.0,255,63,135
1749725929307.562,145227,1749725929288.8132,252,59,143
1749725929327.437,144904,1749725929308.656,248,55,134
1749725929347.25,144715,1749725929328.5,252,56,135
1749725929367.125,144567,1749725929348.312,258,51,131
1749725929386.937,144525,1749725929368.156,257,55,138
1749725929406.75,144515,1749725929388.0,247,56,130
1749725929426.625,144516,1749725929407.844,248,63,124
1749725929446.531,144548,1749725929427.687,252,71,126
1749725929466.281,144593,1749725929447.594,258,69,134
1749725929486.125,144647,1749725929467.344,263,71,123
1749725929505.969,144682,1749725929487.188,262,73,127
1749725929525.812,144734,1749725929507.031,255,63,124
1749725929545.594,144750,1749725929526.875,254,69,132
1749725929565.438,144759,1749725929546.719,248,60,127
1749725929585.281,144744,1749725929566.5,252,48,127
1749725929605.125,144728,1749725929586.344,255,55,140
1749725929624.969,144694,1749725929606.188,241,55,147
1749725929644.813,144693,1749725929626.062,243,54,148
1749725929664.688,144727,1749725929645.875,248,55,143
1749725929684.531,144777,1749725929665.75,253,56,146
1749725929704.406,144836,1749725929685.563,263,59,137
1749725929724.25,144898,1749725929705.469,245,62,136
1749725929744.094,144999,1749725929725.312,249,63,131
1749725929763.937,145065,1749725929745.125,251,72,131
1749725929783.844,145155,1749725929765.031,252,63,127
1749725929803.625,145243,1749725929784.938,252,63,125
1749725929823.469,145342,1749725929804.688,248,63,127
1749725929843.313,145414,1749725929824.531,256,60,127
1749725929863.156,145519,1749725929844.375,259,55,144
1749725929883.0,145601,1749725929864.219,254,63,135
1749725929902.844,145683,1749725929884.094,260,63,143
1749725929922.719,145766,1749725929903.906,262,52,127
1749725929942.594,145857,1749725929923.812,248,57,142
1749725929962.406,145929,1749725929943.656,244,59,128
1749725929982.25,146011,1749725929963.5,248,57,140
