Local: ,2025-05-08 00:00:00+02:00,tz_sec ,7200
Linux Epoch (ms):,1746655200000.0
Timestamp,Seq No.,ECG data
1746694284344.031,0,39313
1746694284345.031,0,38126
1746694284346.031,0,37083
1746694284347.031,0,36201
1746694284348.031,0,35447
1746694284348.906,0,34854
1746694284349.906,0,34376
1746694284350.906,0,34016
1746694284351.906,0,33751
1746694284352.906,0,33555
1746694284353.906,0,33413
1746694284354.906,1,33320
1746694284355.906,1,33256
1746694284356.906,1,33227
1746694284357.906,1,33211
1746694284358.906,1,33201
1746694284359.906,1,33205
1746694284360.906,1,33211
1746694284361.906,1,33217
1746694284362.906,1,33225
1746694284363.906,1,33227
1746694284364.813,1,33230
1746694284365.813,2,33233
1746694284366.812,2,33245
1746694284367.813,2,33243
1746694284368.812,2,33240
1746694284369.813,2,33231
1746694284370.812,2,33221
1746694284371.813,2,33209
1746694284372.812,2,33193
1746694284373.813,2,33173
1746694284374.8118,2,33155
1746694284375.813,2,33142
1746694284376.812,3,33132
1746694284377.813,3,33122
1746694284378.812,3,33129
1746694284379.813,3,33130
1746694284380.719,3,33125
1746694284381.719,3,33117
1746694284382.719,3,33101
1746694284383.719,3,33087
1746694284384.719,3,33079
1746694284385.719,3,33066
1746694284386.719,3,33058
1746694284387.719,4,33046
1746694284388.719,4,33035
1746694284389.719,4,33024
1746694284390.719,4,33019
1746694284391.719,4,33016
1746694284392.719,4,33013
1746694284393.719,4,33011
1746694284394.719,4,33015
1746694284395.719,4,33014
1746694284396.562,4,32997
1746694284397.563,4,32993
1746694284398.562,5,32987
1746694284399.563,5,32985
1746694284400.562,5,32973
1746694284401.563,5,32959
1746694284402.562,5,32947
1746694284403.563,5,32941
1746694284404.562,5,32931
1746694284405.562,5,32924
1746694284406.563,5,32917
1746694284407.562,5,32915
1746694284408.563,5,32914
1746694284409.562,6,32905
1746694284410.563,6,32915
1746694284411.562,6,32915
1746694284412.438,6,32915
1746694284413.437,6,32917
1746694284414.438,6,32909
1746694284415.437,6,32901
1746694284416.437,6,32897
1746694284417.438,6,32891
1746694284418.437,6,32881
1746694284419.438,6,32878
1746694284420.437,7,32870
1746694284421.438,7,32873
1746694284422.437,7,32870
1746694284423.438,7,32869
1746694284424.437,7,32874
1746694284425.438,7,32871
1746694284426.437,7,32881
1746694284427.438,7,32880
1746694284428.313,7,32878
1746694284429.312,7,32873
1746694284430.313,7,32869
1746694284431.312,8,32882
1746694284432.313,8,32908
1746694284433.312,8,32929
1746694284434.313,8,32919
1746694284435.312,8,32901
1746694284436.313,8,32886
1746694284437.3118,8,32865
1746694284438.313,8,32850
1746694284439.312,8,32842
1746694284440.313,8,32819
1746694284441.312,8,32798
1746694284442.313,9,32787
1746694284443.312,9,32775
1746694284444.25,9,32759
1746694284445.25,9,32756
1746694284446.25,9,32753
1746694284447.25,9,32754
1746694284448.25,9,32747
1746694284449.25,9,32737
1746694284450.25,9,32731
1746694284451.25,9,32722
1746694284452.25,9,32721
1746694284453.25,10,32725
1746694284454.25,10,32719
1746694284455.25,10,32725
1746694284456.25,10,32748
1746694284457.25,10,32802
1746694284458.25,10,32900
1746694284459.25,10,33052
1746694284460.156,10,33219
1746694284461.156,10,33431
1746694284462.156,10,33653
1746694284463.156,10,33895
1746694284464.156,11,34165
1746694284465.156,11,34438
1746694284466.156,11,34724
1746694284467.156,11,34997
1746694284468.156,11,35281
1746694284469.156,11,35574
1746694284470.156,11,35855
1746694284471.1558,11,36130
1746694284472.156,11,36427
1746694284473.156,11,36685
1746694284474.156,11,36975
1746694284475.156,12,37225
1746694284476.0,12,37478
1746694284477.0,12,37731
1746694284478.0,12,37981
1746694284479.0,12,38225
1746694284480.0,12,38471
1746694284481.0,12,38717
1746694284482.0,12,38953
1746694284483.0,12,39181
1746694284484.0,12,39403
1746694284485.0,12,39626
1746694284486.0,13,39833
1746694284487.0,13,40036
1746694284488.0,13,40240
1746694284489.0,13,40440
1746694284490.0,13,40639
1746694284491.0,13,40845
1746694284491.906,13,41043
1746694284492.906,13,41250
1746694284493.906,13,41453
1746694284494.906,13,41653
1746694284495.906,13,41852
1746694284496.906,14,42060
1746694284497.906,14,42267
1746694284498.906,14,42462
1746694284499.906,14,42655
1746694284500.906,14,42849
1746694284501.906,14,43040
1746694284502.906,14,43235
1746694284503.906,14,43437
1746694284504.906,14,43630
1746694284505.906,14,43820
1746694284506.906,14,44007
1746694284507.781,15,44186
1746694284508.781,15,44358
1746694284509.7808,15,44522
1746694284510.781,15,44680
1746694284511.781,15,44834
1746694284512.781,15,44981
1746694284513.781,15,45129
1746694284514.781,15,45275
1746694284515.781,15,45415
1746694284516.781,15,45564
1746694284517.781,15,45708
1746694284518.781,16,45858
1746694284519.781,16,45997
1746694284520.781,16,46131
1746694284521.781,16,46263
1746694284522.781,16,46403
1746694284523.719,16,46536
1746694284524.719,16,46670
1746694284525.719,16,46807
1746694284526.719,16,46956
1746694284527.719,16,47111
1746694284528.719,16,47267
1746694284529.719,17,47407
1746694284530.719,17,47546
1746694284531.719,17,47682
1746694284532.719,17,47815
1746694284533.719,17,47949
1746694284534.719,17,48081
1746694284535.719,17,48221
1746694284536.719,17,48361
1746694284537.719,17,48498
1746694284538.719,17,48639
1746694284539.594,17,48775
1746694284540.594,18,48901
1746694284541.594,18,49041
1746694284542.594,18,49144
1746694284543.594,18,49248
1746694284544.594,18,49353
1746694284545.594,18,49446
1746694284546.594,18,49538
1746694284547.594,18,49632
1746694284548.594,18,49732
1746694284549.594,18,49835
1746694284550.594,18,49929
1746694284551.594,19,50033
1746694284552.594,19,50138
1746694284553.594,19,50264
1746694284554.594,19,50379
1746694284555.469,19,50497
1746694284556.469,19,50612
1746694284557.469,19,50716
1746694284558.469,19,50811
1746694284559.469,19,50896
1746694284560.469,19,50982
1746694284561.469,19,51052
1746694284562.469,20,51126
1746694284563.469,20,51207
1746694284564.469,20,51300
1746694284565.469,20,51389
1746694284566.469,20,51490
1746694284567.469,20,51589
1746694284568.469,20,51687
1746694284569.469,20,51791
1746694284570.469,20,51888
1746694284571.375,20,51979
1746694284572.375,20,52066
1746694284573.375,21,52141
1746694284574.375,21,52217
1746694284575.375,21,52292
1746694284576.375,21,52360
1746694284577.375,21,52432
1746694284578.375,21,52505
1746694284579.375,21,52583
1746694284580.375,21,52652
1746694284581.375,21,52724
1746694284582.375,21,52795
1746694284583.375,21,52862
1746694284584.375,22,52931
1746694284585.375,22,52999
1746694284586.375,22,53080
1746694284587.25,22,53143
1746694284588.25,22,53204
1746694284589.25,22,53266
1746694284590.25,22,53317
1746694284591.25,22,53367
1746694284592.25,22,53418
1746694284593.25,22,53469
1746694284594.25,22,53518
1746694284595.25,23,53574
1746694284596.25,23,53638
1746694284597.25,23,53704
1746694284598.25,23,53769
1746694284599.25,23,53832
1746694284600.25,23,53900
1746694284601.25,23,53969
1746694284602.25,23,54046
1746694284603.156,23,54110
1746694284604.156,23,54182
1746694284605.156,23,54237
1746694284606.156,24,54292
1746694284607.156,24,54343
1746694284608.156,24,54391
1746694284609.156,24,54426
1746694284610.156,24,54450
1746694284611.156,24,54483
1746694284612.156,24,54510
1746694284613.156,24,54538
1746694284614.156,24,54561
1746694284615.156,24,54586
1746694284616.156,24,54607
1746694284617.156,25,54637
1746694284618.156,25,54669
1746694284619.063,25,54707
1746694284620.062,25,54758
1746694284621.063,25,54803
1746694284622.062,25,54863
1746694284623.063,25,54930
1746694284624.062,25,54989
1746694284625.063,25,55036
1746694284626.062,25,55093
1746694284627.063,25,55127
1746694284628.062,26,55157
1746694284629.062,26,55190
1746694284630.063,26,55228
1746694284631.062,26,55264
1746694284632.063,26,55308
1746694284633.0618,26,55351
1746694284634.063,26,55396
1746694284634.937,26,55438
1746694284635.938,26,55469
1746694284636.937,26,55494
1746694284637.938,26,55512
1746694284638.937,27,55524
1746694284639.937,27,55539
1746694284640.938,27,55547
1746694284641.937,27,55559
1746694284642.938,27,55566
1746694284643.937,27,55587
1746694284644.938,27,55601
1746694284645.937,27,55617
1746694284646.938,27,55632
1746694284647.937,27,55641
1746694284648.938,27,55672
1746694284649.937,28,55705
1746694284650.844,28,55731
1746694284651.844,28,55764
1746694284652.844,28,55787
1746694284653.8442,28,55810
1746694284654.844,28,55838
1746694284655.844,28,55865
1746694284656.844,28,55892
1746694284657.844,28,55917
1746694284658.844,28,55944
1746694284659.844,28,55964
1746694284660.844,29,55984
1746694284661.844,29,56004
1746694284662.844,29,56016
1746694284663.844,29,56021
1746694284664.844,29,56035
1746694284665.844,29,56038
1746694284666.719,29,56056
1746694284667.719,29,56075
1746694284668.719,29,56087
1746694284669.719,29,56111
1746694284670.719,29,56129
1746694284671.719,30,56150
1746694284672.719,30,56158
1746694284673.719,30,56169
1746694284674.719,30,56166
1746694284675.719,30,56169
1746694284676.719,30,56176
1746694284677.7192,30,56185
1746694284678.719,30,56194
1746694284679.719,30,56197
1746694284680.719,30,56195
1746694284681.719,30,56191
1746694284682.625,31,56192
1746694284683.625,31,56191
1746694284684.625,31,56198
1746694284685.625,31,56199
1746694284686.625,31,56208
1746694284687.625,31,56206
1746694284688.625,31,56200
1746694284689.625,31,56193
1746694284690.625,31,56190
1746694284691.625,31,56189
1746694284692.625,31,56200
1746694284693.625,32,56213
1746694284694.625,32,56234
1746694284695.625,32,56252
1746694284696.625,32,56275
1746694284697.625,32,56288
1746694284698.531,32,56288
1746694284699.531,32,56285
1746694284700.531,32,56275
1746694284701.531,32,56264
1746694284702.531,32,56252
1746694284703.531,32,56252
1746694284704.531,33,56238
1746694284705.5308,33,56240
1746694284706.531,33,56244
1746694284707.531,33,56254
1746694284708.531,33,56273
1746694284709.531,33,56289
1746694284710.531,33,56316
1746694284711.531,33,56327
1746694284712.531,33,56342
1746694284713.531,33,56337
1746694284714.406,33,56333
1746694284715.406,34,56321
1746694284716.406,34,56301
1746694284717.406,34,56282
1746694284718.406,34,56270
1746694284719.406,34,56250
1746694284720.406,34,56234
1746694284721.406,34,56214
1746694284722.406,34,56192
1746694284723.406,34,56179
1746694284724.406,34,56161
1746694284725.406,34,56138
1746694284726.406,35,56126
1746694284727.406,35,56115
1746694284728.406,35,56108
1746694284729.406,35,56105
1746694284730.281,35,56095
1746694284731.281,35,56096
1746694284732.281,35,56094
1746694284733.281,35,56084
1746694284734.281,35,56084
1746694284735.281,35,56088
1746694284736.281,35,56074
1746694284737.281,36,56075
1746694284738.281,36,56075
1746694284739.281,36,56077
1746694284740.281,36,56074
1746694284741.281,36,56084
1746694284742.281,36,56078
1746694284743.281,36,56069
1746694284744.281,36,56060
1746694284745.281,36,56049
1746694284746.156,36,56033
1746694284747.156,36,56015
1746694284748.156,37,56001
1746694284749.156,37,55981
1746694284750.156,37,55958
1746694284751.156,37,55936
1746694284752.156,37,55906
1746694284753.156,37,55881
1746694284754.156,37,55859
1746694284755.156,37,55851
1746694284756.156,37,55828
1746694284757.156,37,55813
1746694284758.156,37,55791
1746694284759.156,38,55776
1746694284760.156,38,55771
1746694284761.156,38,55782
1746694284762.094,38,55798
1746694284763.094,38,55817
1746694284764.094,38,55826
1746694284765.094,38,55816
1746694284766.094,38,55803
1746694284767.094,38,55797
1746694284768.094,38,55783
1746694284769.094,38,55764
1746694284770.094,39,55733
1746694284771.094,39,55699
1746694284772.094,39,55659
1746694284773.094,39,55635
1746694284774.094,39,55601
1746694284775.094,39,55579
1746694284776.094,39,55564
1746694284777.094,39,55537
1746694284777.969,39,55514
1746694284778.969,39,55492
1746694284779.969,39,55471
1746694284780.969,40,55466
1746694284781.969,40,55449
1746694284782.969,40,55438
1746694284783.969,40,55416
1746694284784.969,40,55389
1746694284785.969,40,55362
1746694284786.969,40,55332
1746694284787.969,40,55313
1746694284788.969,40,55297
1746694284789.969,40,55290
1746694284790.969,40,55286
1746694284791.969,41,55289
1746694284792.969,41,55294
1746694284793.844,41,55287
1746694284794.844,41,55278
1746694284795.844,41,55263
1746694284796.844,41,55242
1746694284797.844,41,55216
1746694284798.844,41,55192
1746694284799.844,41,55152
1746694284800.844,41,55112
1746694284801.844,41,55073
1746694284802.844,42,55044
1746694284803.844,42,55030
1746694284804.844,42,55019
1746694284805.844,42,55012
1746694284806.844,42,55008
1746694284807.844,42,55005
1746694284808.844,42,54994
1746694284809.719,42,54988
1746694284810.719,42,54970
1746694284811.719,42,54953
1746694284812.719,42,54928
1746694284813.719,43,54895
1746694284814.719,43,54864
1746694284815.719,43,54814
1746694284816.719,43,54782
1746694284817.719,43,54747
1746694284818.719,43,54710
1746694284819.719,43,54688
1746694284820.719,43,54665
1746694284821.719,43,54646
1746694284822.719,43,54620
1746694284823.719,43,54604
1746694284824.719,44,54587
1746694284825.625,44,54575
1746694284826.625,44,54570
1746694284827.625,44,54560
1746694284828.625,44,54550
1746694284829.625,44,54538
1746694284830.625,44,54521
1746694284831.625,44,54509
1746694284832.625,44,54485
1746694284833.625,44,54466
1746694284834.625,44,54435
1746694284835.625,45,54410
1746694284836.625,45,54376
1746694284837.625,45,54347
1746694284838.625,45,54316
1746694284839.625,45,54294
1746694284840.625,45,54281
1746694284841.656,45,54260
1746694284842.656,45,54240
1746694284843.656,45,54206
1746694284844.656,45,54170
1746694284845.656,45,54127
1746694284846.656,46,54086
1746694284847.656,46,54038
1746694284848.656,46,53992
1746694284849.656,46,53954
1746694284850.656,46,53926
1746694284851.656,46,53906
1746694284852.656,46,53889
1746694284853.656,46,53876
1746694284854.656,46,53862
1746694284855.656,46,53853
1746694284856.656,46,53840
1746694284857.406,47,53830
1746694284858.406,47,53809
1746694284859.406,47,53781
1746694284860.406,47,53756
1746694284861.406,47,53728
1746694284862.406,47,53701
1746694284863.406,47,53680
1746694284864.406,47,53656
1746694284865.406,47,53628
1746694284866.406,47,53602
1746694284867.406,47,53571
1746694284868.406,48,53536
1746694284869.406,48,53506
1746694284870.406,48,53472
1746694284871.406,48,53454
1746694284872.406,48,53449
1746694284873.281,48,53438
1746694284874.281,48,53426
1746694284875.281,48,53420
1746694284876.281,48,53409
1746694284877.281,48,53397
1746694284878.281,48,53381
1746694284879.281,49,53357
1746694284880.281,49,53328
1746694284881.281,49,53309
1746694284882.281,49,53276
1746694284883.281,49,53250
1746694284884.281,49,53220
1746694284885.281,49,53191
1746694284886.281,49,53173
1746694284887.281,49,53154
1746694284888.281,49,53141
1746694284889.187,49,53111
1746694284890.188,50,53089
1746694284891.187,50,53062
1746694284892.188,50,53038
1746694284893.187,50,53009
1746694284894.188,50,52984
1746694284895.187,50,52963
1746694284896.188,50,52938
1746694284897.187,50,52910
1746694284898.1882,50,52882
1746694284899.187,50,52847
1746694284900.188,50,52809
1746694284901.187,51,52777
1746694284902.188,51,52739
1746694284903.188,51,52708
1746694284904.187,51,52683
1746694284905.063,51,52662
1746694284906.0618,51,52639
1746694284907.063,51,52618
1746694284908.062,51,52598
1746694284909.063,51,52570
1746694284910.062,51,52543
1746694284911.063,51,52517
1746694284912.062,52,52487
1746694284913.063,52,52458
1746694284914.062,52,52433
1746694284915.062,52,52410
1746694284916.063,52,52384
1746694284917.062,52,52357
1746694284918.063,52,52323
1746694284919.062,52,52296
1746694284920.063,52,52269
1746694284920.969,52,52237
1746694284921.969,52,52208
1746694284922.969,53,52177
1746694284923.969,53,52140
1746694284924.969,53,52109
1746694284925.969,53,52090
1746694284926.969,53,52060
1746694284927.969,53,52026
1746694284928.969,53,51995
1746694284929.969,53,51955
1746694284930.969,53,51925
1746694284931.969,53,51888
1746694284932.969,53,51856
1746694284933.969,54,51816
1746694284934.969,54,51788
1746694284935.969,54,51764
1746694284936.844,54,51744
1746694284937.844,54,51715
1746694284938.844,54,51695
1746694284939.844,54,51678
1746694284940.844,54,51660
1746694284941.844,54,51647
1746694284942.844,54,51631
1746694284943.844,54,51606
1746694284944.844,55,51585
1746694284945.844,55,51554
1746694284946.844,55,51528
1746694284947.844,55,51496
1746694284948.844,55,51457
1746694284949.844,55,51430
1746694284950.844,55,51401
1746694284951.844,55,51384
1746694284952.719,55,51369
1746694284953.719,55,51350
1746694284954.719,55,51333
1746694284955.719,56,51304
1746694284956.719,56,51289
1746694284957.719,56,51258
1746694284958.719,56,51220
1746694284959.719,56,51176
1746694284960.719,56,51134
1746694284961.719,56,51103
1746694284962.719,56,51075
1746694284963.719,56,51046
1746694284964.719,56,51009
1746694284965.719,56,50968
1746694284966.719,57,50926
1746694284967.719,57,50890
1746694284968.656,57,50857
1746694284969.656,57,50821
1746694284970.656,57,50797
1746694284971.656,57,50777
1746694284972.656,57,50766
1746694284973.656,57,50748
1746694284974.656,57,50735
1746694284975.656,57,50717
1746694284976.656,57,50696
1746694284977.656,58,50680
1746694284978.656,58,50670
1746694284979.656,58,50643
1746694284980.656,58,50624
1746694284981.656,58,50591
1746694284982.656,58,50568
1746694284983.656,58,50543
1746694284984.5,58,50509
1746694284985.5,58,50479
1746694284986.5,58,50438
1746694284987.5,58,50407
1746694284988.5,59,50380
1746694284989.5,59,50354
1746694284990.5,59,50331
1746694284991.5,59,50310
1746694284992.5,59,50284
1746694284993.5,59,50254
1746694284994.5,59,50219
1746694284995.5,59,50194
1746694284996.5,59,50159
1746694284997.5,59,50132
1746694284998.5,59,50103
1746694284999.5,60,50067
1746694285000.437,60,50031
1746694285001.438,60,49990
1746694285002.437,60,49956
1746694285003.438,60,49932
1746694285004.437,60,49908
1746694285005.438,60,49889
1746694285006.438,60,49861
1746694285007.437,60,49838
1746694285008.438,60,49816
1746694285009.437,60,49792
1746694285010.438,61,49768
1746694285011.437,61,49738
1746694285012.438,61,49704
1746694285013.437,61,49677
1746694285014.438,61,49657
1746694285015.4368,61,49639
1746694285016.281,61,49619
1746694285017.281,61,49605
1746694285018.281,61,49591
1746694285019.281,61,49585
1746694285020.281,61,49570
1746694285021.281,62,49550
1746694285022.281,62,49515
1746694285023.281,62,49486
1746694285024.281,62,49445
1746694285025.281,62,49412
1746694285026.281,62,49375
1746694285027.281,62,49340
1746694285028.281,62,49305
1746694285029.281,62,49275
1746694285030.281,62,49244
1746694285031.281,62,49231
1746694285032.219,63,49211
1746694285033.219,63,49202
1746694285034.219,63,49183
1746694285035.219,63,49153
1746694285036.219,63,49123
1746694285037.219,63,49098
1746694285038.219,63,49075
1746694285039.219,63,49051
1746694285040.219,63,49019
1746694285041.219,63,48986
1746694285042.219,63,48941
1746694285043.219,64,48896
1746694285044.219,64,48862
1746694285045.219,64,48831
1746694285046.219,64,48812
1746694285047.219,64,48790
1746694285048.094,64,48764
1746694285049.094,64,48735
1746694285050.094,64,48713
1746694285051.094,64,48698
1746694285052.094,64,48689
1746694285053.094,64,48669
1746694285054.094,65,48645
1746694285055.094,65,48618
1746694285056.094,65,48594
1746694285057.094,65,48559
1746694285058.094,65,48534
1746694285059.094,65,48509
1746694285060.0942,65,48483
1746694285061.094,65,48460
1746694285062.094,65,48437
1746694285063.094,65,48413
1746694285064.0,65,48391
1746694285065.0,66,48364
1746694285066.0,66,48336
1746694285067.0,66,48313
1746694285068.0,66,48291
1746694285069.0,66,48282
1746694285070.0,66,48256
1746694285071.0,66,48232
1746694285072.0,66,48201
1746694285073.0,66,48165
1746694285074.0,66,48119
1746694285075.0,66,48084
1746694285076.0,67,48041
1746694285077.0,67,48007
1746694285078.0,67,47985
1746694285079.0,67,47973
1746694285079.906,67,47949
1746694285080.906,67,47922
1746694285081.906,67,47884
1746694285082.906,67,47849
1746694285083.906,67,47815
1746694285084.906,67,47793
1746694285085.906,67,47770
1746694285086.906,68,47755
1746694285087.9058,68,47742
1746694285088.906,68,47726
1746694285089.906,68,47711
1746694285090.906,68,47690
1746694285091.906,68,47672
1746694285092.906,68,47648
1746694285093.906,68,47632
1746694285094.906,68,47614
1746694285095.781,68,47588
1746694285096.781,68,47559
1746694285097.781,69,47534
1746694285098.781,69,47510
1746694285099.781,69,47483
1746694285100.781,69,47460
1746694285101.781,69,47430
1746694285102.781,69,47399
1746694285103.781,69,47365
1746694285104.781,69,47342
1746694285105.781,69,47330
1746694285106.781,69,47326
1746694285107.781,69,47319
1746694285108.781,70,47319
1746694285109.781,70,47312
1746694285110.781,70,47301
1746694285111.688,70,47287
1746694285112.687,70,47263
1746694285113.688,70,47241
1746694285114.687,70,47215
1746694285115.688,70,47181
1746694285116.687,70,47161
1746694285117.688,70,47119
1746694285118.687,70,47088
1746694285119.688,71,47057
1746694285120.687,71,47036
1746694285121.688,71,47017
1746694285122.687,71,47003
1746694285123.688,71,46986
1746694285124.687,71,46969
1746694285125.688,71,46946
1746694285126.688,71,46924
1746694285127.594,71,46906
1746694285128.594,71,46893
1746694285129.594,71,46898
1746694285130.594,72,46892
1746694285131.594,72,46888
1746694285132.594,72,46879
1746694285133.594,72,46868
1746694285134.594,72,46851
1746694285135.594,72,46832
1746694285136.594,72,46815
1746694285137.594,72,46793
1746694285138.594,72,46774
1746694285139.594,72,46747
1746694285140.594,72,46719
1746694285141.594,73,46707
1746694285142.594,73,46692
1746694285143.469,73,46687
1746694285144.469,73,46677
1746694285145.469,73,46674
1746694285146.4692,73,46663
1746694285147.469,73,46648
1746694285148.469,73,46635
1746694285149.469,73,46607
1746694285150.469,73,46577
1746694285151.469,73,46546
1746694285152.469,74,46514
1746694285153.469,74,46477
1746694285154.469,74,46438
1746694285155.469,74,46388
1746694285156.469,74,46344
1746694285157.469,74,46316
1746694285158.469,74,46290
1746694285159.375,74,46275
1746694285160.375,74,46258
1746694285161.375,74,46238
1746694285162.375,74,46206
1746694285163.375,75,46179
1746694285164.375,75,46146
1746694285165.375,75,46112
1746694285166.375,75,46073
1746694285167.375,75,46036
1746694285168.375,75,46015
1746694285169.375,75,45981
1746694285170.375,75,45955
1746694285171.375,75,45920
1746694285172.375,75,45881
1746694285173.375,75,45843
1746694285174.375,76,45800
1746694285175.219,76,45761
1746694285176.219,76,45724
1746694285177.219,76,45689
1746694285178.219,76,45656
1746694285179.219,76,45616
1746694285180.219,76,45584
1746694285181.219,76,45546
1746694285182.219,76,45510
1746694285183.219,76,45465
1746694285184.219,76,45422
1746694285185.219,77,45380
1746694285186.219,77,45340
1746694285187.219,77,45301
1746694285188.219,77,45261
1746694285189.219,77,45242
1746694285190.219,77,45228
1746694285191.125,77,45217
1746694285192.125,77,45197
1746694285193.125,77,45187
1746694285194.125,77,45184
1746694285195.125,77,45185
1746694285196.125,78,45180
1746694285197.125,78,45166
1746694285198.125,78,45148
1746694285199.125,78,45120
1746694285200.125,78,45090
1746694285201.125,78,45050
1746694285202.125,78,45011
1746694285203.125,78,44966
1746694285204.125,78,44927
1746694285205.125,78,44900
1746694285206.125,78,44878
1746694285207.0,79,44856
1746694285208.0,79,44851
1746694285209.0,79,44845
1746694285210.0,79,44841
1746694285211.0,79,44833
1746694285212.0,79,44828
1746694285213.0,79,44813
1746694285214.0,79,44791
1746694285215.0,79,44759
1746694285216.0,79,44717
1746694285217.0,79,44681
1746694285218.0,80,44639
1746694285219.0,80,44609
1746694285220.0,80,44574
1746694285221.0,80,44545
1746694285222.0,80,44518
1746694285222.906,80,44494
1746694285223.906,80,44477
1746694285224.906,80,44465
1746694285225.906,80,44461
1746694285226.906,80,44453
1746694285227.906,80,44430
1746694285228.906,81,44412
1746694285229.906,81,44385
1746694285230.906,81,44359
1746694285231.906,81,44341
1746694285232.906,81,44321
1746694285233.906,81,44305
1746694285234.906,81,44287
1746694285235.906,81,44266
1746694285236.906,81,44247
1746694285237.906,81,44229
1746694285238.812,81,44204
1746694285239.813,82,44184
1746694285240.813,82,44163
1746694285241.812,82,44154
1746694285242.813,82,44134
1746694285243.812,82,44125
1746694285244.813,82,44104
1746694285245.812,82,44085
1746694285246.813,82,44071
1746694285247.812,82,44059
1746694285248.813,82,44045
1746694285249.8118,82,44015
1746694285250.813,83,43986
1746694285251.812,83,43953
1746694285252.813,83,43925
1746694285253.812,83,43900
1746694285254.687,83,43869
1746694285255.688,83,43841
1746694285256.687,83,43813
1746694285257.688,83,43793
1746694285258.687,83,43786
1746694285259.688,83,43785
1746694285260.687,83,43796
1746694285261.688,84,43813
1746694285262.687,84,43832
1746694285263.688,84,43843
1746694285264.687,84,43844
1746694285265.688,84,43832
1746694285266.687,84,43809
1746694285267.688,84,43786
1746694285268.687,84,43765
1746694285269.687,84,43749
1746694285270.563,84,43729
1746694285271.562,84,43715
1746694285272.563,85,43701
1746694285273.562,85,43680
1746694285274.563,85,43670
1746694285275.562,85,43656
1746694285276.563,85,43642
1746694285277.562,85,43637
1746694285278.563,85,43638
1746694285279.562,85,43643
1746694285280.562,85,43666
1746694285281.563,85,43693
1746694285282.562,85,43721
1746694285283.563,86,43768
1746694285284.562,86,43820
1746694285285.563,86,43879
1746694285286.5,86,43937
1746694285287.5,86,44002
1746694285288.5,86,44083
1746694285289.5,86,44173
1746694285290.5,86,44264
1746694285291.5,86,44365
1746694285292.5,86,44453
1746694285293.5,86,44555
1746694285294.5,87,44659
1746694285295.5,87,44757
1746694285296.5,87,44852
1746694285297.5,87,44944
1746694285298.5,87,45045
1746694285299.5,87,45147
1746694285300.5,87,45244
1746694285301.5,87,45334
1746694285302.375,87,45406
1746694285303.375,87,45457
1746694285304.375,87,45483
1746694285305.375,88,45466
1746694285306.375,88,45405
1746694285307.375,88,45325
1746694285308.375,88,45218
1746694285309.375,88,45091
1746694285310.375,88,44953
1746694285311.375,88,44806
1746694285312.375,88,44657
1746694285313.375,88,44513
1746694285314.375,88,44375
1746694285315.375,88,44241
1746694285316.375,89,44126
1746694285317.375,89,44011
1746694285318.312,89,43900
1746694285319.313,89,43783
1746694285320.312,89,43661
1746694285321.312,89,43529
1746694285322.313,89,43398
1746694285323.312,89,43274
1746694285324.313,89,43135
1746694285325.312,89,42997
1746694285326.313,89,42867
1746694285327.312,90,42752
1746694285328.3132,90,42659
1746694285329.312,90,42592
1746694285330.313,90,42547
1746694285331.312,90,42535
1746694285332.313,90,42548
1746694285333.312,90,42595
1746694285334.156,90,42632
1746694285335.156,90,42677
1746694285336.156,90,42702
1746694285337.156,90,42728
1746694285338.156,91,42741
1746694285339.156,91,42743
1746694285340.156,91,42735
1746694285341.156,91,42716
1746694285342.156,91,42689
1746694285343.156,91,42653
1746694285344.156,91,42616
1746694285345.156,91,42580
1746694285346.1558,91,42531
1746694285347.156,91,42474
1746694285348.156,91,42420
1746694285349.156,92,42372
1746694285350.063,92,42327
1746694285351.062,92,42293
1746694285352.063,92,42277
1746694285353.062,92,42266
1746694285354.063,92,42261
1746694285355.062,92,42251
1746694285356.063,92,42228
1746694285357.062,92,42200
1746694285358.063,92,42166
1746694285359.062,92,42133
1746694285360.063,93,42101
1746694285361.063,93,42079
1746694285362.062,93,42040
1746694285363.063,93,42019
1746694285364.062,93,41991
1746694285365.063,93,41966
1746694285365.969,93,41939
1746694285366.969,93,41911
1746694285367.969,93,41882
1746694285368.969,93,41846
1746694285369.969,93,41820
1746694285370.969,94,41790
1746694285371.969,94,41771
1746694285372.969,94,41764
1746694285373.969,94,41757
1746694285374.969,94,41762
1746694285375.969,94,41769
1746694285376.969,94,41775
1746694285377.969,94,41771
1746694285378.969,94,41755
1746694285379.969,94,41736
1746694285380.969,94,41713
1746694285381.875,95,41691
1746694285382.875,95,41662
1746694285383.875,95,41630
1746694285384.875,95,41606
1746694285385.875,95,41574
1746694285386.875,95,41562
1746694285387.875,95,41553
1746694285388.875,95,41540
1746694285389.875,95,41534
1746694285390.875,95,41530
1746694285391.875,95,41524
1746694285392.875,96,41515
1746694285393.875,96,41500
1746694285394.875,96,41497
1746694285395.875,96,41498
1746694285396.875,96,41493
1746694285397.75,96,41487
1746694285398.75,96,41486
1746694285399.75,96,41483
1746694285400.75,96,41481
1746694285401.75,96,41474
1746694285402.75,96,41451
1746694285403.75,97,41427
1746694285404.75,97,41392
1746694285405.75,97,41364
1746694285406.75,97,41317
1746694285407.75,97,41275
1746694285408.75,97,41235
1746694285409.75,97,41201
1746694285410.75,97,41176
1746694285411.75,97,41160
1746694285412.75,97,41165
1746694285413.656,97,41176
1746694285414.656,98,41186
1746694285415.656,98,41199
1746694285416.656,98,41210
1746694285417.656,98,41213
1746694285418.656,98,41211
1746694285419.656,98,41210
1746694285420.656,98,41206
1746694285421.656,98,41204
1746694285422.656,98,41200
1746694285423.656,98,41188
1746694285424.656,98,41162
1746694285425.656,99,41134
1746694285426.656,99,41104
1746694285427.656,99,41080
1746694285428.656,99,41045
1746694285429.531,99,41020
1746694285430.531,99,40993
1746694285431.531,99,40976
1746694285432.531,99,40961
1746694285433.531,99,40963
1746694285434.531,99,40963
1746694285435.531,99,40956
1746694285436.531,100,40959
1746694285437.531,100,40954
1746694285438.531,100,40951
1746694285439.531,100,40942
1746694285440.531,100,40923
1746694285441.531,100,40904
1746694285442.531,100,40877
1746694285443.531,100,40859
1746694285444.531,100,40844
1746694285445.437,100,40835
1746694285446.438,100,40837
1746694285447.437,101,40840
1746694285448.438,101,40838
1746694285449.437,101,40842
1746694285450.438,101,40849
1746694285451.437,101,40840
1746694285452.437,101,40823
1746694285453.438,101,40803
1746694285454.437,101,40782
1746694285455.438,101,40771
1746694285456.437,101,40752
1746694285457.438,101,40739
1746694285458.437,102,40712
1746694285459.438,102,40704
1746694285460.437,102,40696
1746694285461.313,102,40694
1746694285462.312,102,40687
1746694285463.312,102,40674
1746694285464.313,102,40660
1746694285465.312,102,40651
1746694285466.313,102,40637
1746694285467.312,102,40620
1746694285468.313,102,40602
1746694285469.312,103,40593
1746694285470.313,103,40583
1746694285471.312,103,40574
1746694285472.313,103,40563
1746694285473.312,103,40550
1746694285474.313,103,40544
1746694285475.312,103,40535
1746694285476.3132,103,40531
1746694285477.188,103,40518
1746694285478.187,103,40505
1746694285479.188,103,40492
1746694285480.187,104,40473
1746694285481.188,104,40457
1746694285482.187,104,40434
1746694285483.188,104,40417
1746694285484.1868,104,40406
1746694285485.188,104,40399
1746694285486.187,104,40403
1746694285487.188,104,40404
1746694285488.187,104,40411
1746694285489.188,104,40417
1746694285490.187,104,40432
1746694285491.188,105,40445
1746694285492.188,105,40458
1746694285493.125,105,40463
1746694285494.125,105,40465
1746694285495.125,105,40463
1746694285496.125,105,40466
1746694285497.125,105,40458
1746694285498.125,105,40444
1746694285499.125,105,40420
1746694285500.125,105,40407
1746694285501.125,105,40388
1746694285502.125,106,40377
1746694285503.125,106,40377
1746694285504.125,106,40371
1746694285505.125,106,40368
1746694285506.125,106,40349
1746694285507.125,106,40338
1746694285508.125,106,40328
1746694285509.0,106,40315
1746694285510.0,106,40309
1746694285511.0,106,40307
1746694285512.0,106,40305
1746694285513.0,107,40292
1746694285514.0,107,40274
1746694285515.0,107,40240
1746694285516.0,107,40206
1746694285517.0,107,40176
1746694285518.0,107,40151
1746694285519.0,107,40133
1746694285520.0,107,40118
1746694285521.0,107,40120
1746694285522.0,107,40125
1746694285523.0,107,40132
1746694285524.0,108,40146
1746694285524.906,108,40150
1746694285525.906,108,40154
1746694285526.906,108,40144
1746694285527.906,108,40138
1746694285528.906,108,40134
1746694285529.906,108,40133
1746694285530.906,108,40122
1746694285531.906,108,40113
1746694285532.906,108,40105
1746694285533.906,108,40099
1746694285534.906,109,40083
1746694285535.906,109,40065
1746694285536.906,109,40051
1746694285537.906,109,40038
1746694285538.906,109,40032
1746694285539.906,109,40017
1746694285540.781,109,40014
1746694285541.781,109,40011
1746694285542.781,109,40003
1746694285543.781,109,39985
1746694285544.781,109,39964
1746694285545.781,110,39939
1746694285546.781,110,39907
1746694285547.781,110,39879
1746694285548.781,110,39845
1746694285549.781,110,39811
1746694285550.781,110,39789
1746694285551.781,110,39767
1746694285552.781,110,39747
1746694285553.781,110,39734
1746694285554.781,110,39719
1746694285555.781,110,39710
1746694285556.688,111,39698
1746694285557.687,111,39684
1746694285558.688,111,39666
1746694285559.687,111,39635
1746694285560.688,111,39599
1746694285561.687,111,39564
1746694285562.6882,111,39541
1746694285563.687,111,39529
1746694285564.688,111,39523
1746694285565.687,111,39513
1746694285566.688,111,39499
1746694285567.687,112,39482
1746694285568.688,112,39458
1746694285569.687,112,39437
1746694285570.688,112,39411
1746694285571.687,112,39380
1746694285572.562,112,39347
1746694285573.563,112,39318
1746694285574.562,112,39283
1746694285575.563,112,39249
1746694285576.562,112,39217
1746694285577.563,112,39186
1746694285578.562,113,39151
1746694285579.563,113,39110
1746694285580.562,113,39074
1746694285581.563,113,39043
1746694285582.562,113,39018
1746694285583.563,113,38992
1746694285584.563,113,38968
1746694285585.562,113,38943
1746694285586.563,113,38922
1746694285587.562,113,38906
1746694285588.438,113,38889
1746694285589.437,114,38873
1746694285590.438,114,38852
1746694285591.437,114,38842
1746694285592.438,114,38831
1746694285593.437,114,38833
1746694285594.438,114,38819
1746694285595.438,114,38802
1746694285596.437,114,38771
1746694285597.438,114,38741
1746694285598.437,114,38703
1746694285599.438,114,38667
1746694285600.437,115,38626
1746694285601.438,115,38594
1746694285602.437,115,38565
1746694285603.438,115,38547
1746694285604.344,115,38537
1746694285605.344,115,38524
1746694285606.344,115,38517
1746694285607.344,115,38507
1746694285608.344,115,38502
1746694285609.344,115,38501
1746694285610.344,115,38481
1746694285611.344,116,38468
1746694285612.344,116,38445
1746694285613.344,116,38428
1746694285614.344,116,38410
1746694285615.344,116,38396
1746694285616.344,116,38381
1746694285617.344,116,38371
1746694285618.344,116,38359
1746694285619.344,116,38351
1746694285620.219,116,38330
1746694285621.219,116,38311
1746694285622.219,117,38296
1746694285623.219,117,38275
1746694285624.219,117,38264
1746694285625.219,117,38247
1746694285626.219,117,38237
1746694285627.219,117,38222
1746694285628.219,117,38219
1746694285629.219,117,38217
1746694285630.219,117,38225
1746694285631.219,117,38245
1746694285632.219,117,38256
1746694285633.219,118,38266
1746694285634.219,118,38271
1746694285635.219,118,38273
1746694285636.156,118,38264
1746694285637.156,118,38249
1746694285638.156,118,38226
1746694285639.156,118,38196
1746694285640.156,118,38173
1746694285641.156,118,38153
1746694285642.156,118,38145
1746694285643.156,118,38119
1746694285644.156,119,38101
1746694285645.156,119,38086
1746694285646.156,119,38072
1746694285647.156,119,38063
1746694285648.156,119,38049
1746694285649.156,119,38043
1746694285650.156,119,38039
1746694285651.156,119,38038
1746694285652.031,119,38036
1746694285653.031,119,38045
1746694285654.031,119,38045
1746694285655.031,120,38050
1746694285656.031,120,38045
1746694285657.031,120,38047
1746694285658.031,120,38038
1746694285659.031,120,38035
1746694285660.031,120,38026
1746694285661.031,120,38018
1746694285662.031,120,38003
1746694285663.031,120,37996
1746694285664.031,120,37996
1746694285665.031,120,37990
1746694285666.0308,121,37983
1746694285667.031,121,37978
1746694285667.938,121,37967
1746694285668.937,121,37964
1746694285669.938,121,37964
1746694285670.937,121,37956
1746694285671.938,121,37939
1746694285672.937,121,37920
1746694285673.938,121,37894
1746694285674.937,121,37878
1746694285675.937,121,37868
1746694285676.938,122,37852
1746694285677.937,122,37836
1746694285678.938,122,37815
1746694285679.9368,122,37787
1746694285680.938,122,37769
1746694285681.937,122,37753
1746694285682.938,122,37737
1746694285683.812,122,37727
1746694285684.813,122,37716
1746694285685.812,122,37725
1746694285686.812,122,37733
1746694285687.813,123,37743
1746694285688.812,123,37741
1746694285689.813,123,37739
1746694285690.812,123,37743
1746694285691.813,123,37745
1746694285692.812,123,37738
1746694285693.813,123,37723
1746694285694.812,123,37709
1746694285695.813,123,37703
1746694285696.812,123,37701
1746694285697.813,123,37705
1746694285698.812,124,37718
1746694285699.719,124,37740
1746694285700.7192,124,37760
1746694285701.719,124,37780
1746694285702.719,124,37801
1746694285703.719,124,37811
1746694285704.719,124,37818
1746694285705.719,124,37820
1746694285706.719,124,37813
1746694285707.719,124,37801
1746694285708.719,124,37782
1746694285709.719,125,37768
1746694285710.719,125,37749
1746694285711.719,125,37726
1746694285712.719,125,37695
1746694285713.719,125,37677
1746694285714.719,125,37657
1746694285715.563,125,37637
1746694285716.562,125,37623
1746694285717.563,125,37609
1746694285718.5618,125,37594
1746694285719.563,125,37583
1746694285720.562,126,37574
1746694285721.563,126,37561
1746694285722.562,126,37556
1746694285723.563,126,37550
1746694285724.562,126,37545
1746694285725.563,126,37545
1746694285726.562,126,37541
1746694285727.562,126,37548
1746694285728.563,126,37544
1746694285729.562,126,37543
1746694285730.563,126,37544
1746694285731.5,127,37532
1746694285732.5,127,37529
1746694285733.5,127,37524
1746694285734.5,127,37517
1746694285735.5,127,37505
1746694285736.5,127,37491
1746694285737.5,127,37478
1746694285738.5,127,37455
1746694285739.5,127,37442
1746694285740.5,127,37437
1746694285741.5,127,37427
1746694285742.5,128,37425
1746694285743.5,128,37419
1746694285744.5,128,37404
1746694285745.5,128,37400
1746694285746.5,128,37393
1746694285747.375,128,37385
1746694285748.375,128,37383
1746694285749.375,128,37376
1746694285750.375,128,37371
1746694285751.375,128,37360
1746694285752.375,128,37353
1746694285753.375,129,37342
1746694285754.375,129,37335
1746694285755.375,129,37324
1746694285756.375,129,37321
1746694285757.375,129,37315
1746694285758.375,129,37311
1746694285759.375,129,37300
1746694285760.375,129,37290
1746694285761.375,129,37281
1746694285762.375,129,37270
1746694285763.281,129,37256
1746694285764.281,130,37249
1746694285765.281,130,37237
1746694285766.281,130,37228
1746694285767.281,130,37219
1746694285768.281,130,37207
1746694285769.281,130,37187
1746694285770.281,130,37161
1746694285771.281,130,37138
1746694285772.281,130,37112
1746694285773.281,130,37088
1746694285774.281,130,37067
1746694285775.281,131,37049
1746694285776.281,131,37041
1746694285777.281,131,37043
1746694285778.281,131,37046
1746694285779.156,131,37053
1746694285780.156,131,37058
1746694285781.156,131,37073
1746694285782.156,131,37082
1746694285783.156,131,37091
1746694285784.156,131,37096
1746694285785.156,131,37095
1746694285786.156,132,37093
1746694285787.156,132,37084
1746694285788.156,132,37075
1746694285789.156,132,37066
1746694285790.156,132,37051
1746694285791.156,132,37039
1746694285792.156,132,37026
1746694285793.156,132,37017
1746694285794.156,132,37012
1746694285795.031,132,37014
1746694285796.031,132,37019
1746694285797.031,133,37032
1746694285798.031,133,37032
1746694285799.031,133,37035
1746694285800.031,133,37031
1746694285801.031,133,37014
1746694285802.031,133,37001
1746694285803.031,133,36977
1746694285804.031,133,36961
1746694285805.031,133,36940
1746694285806.031,133,36933
1746694285807.031,133,36925
1746694285808.031,134,36918
1746694285809.031,134,36921
1746694285810.031,134,36923
1746694285810.937,134,36926
1746694285811.938,134,36922
1746694285812.937,134,36904
1746694285813.938,134,36889
1746694285814.937,134,36868
1746694285815.938,134,36843
1746694285816.937,134,36819
1746694285817.938,134,36797
1746694285818.938,135,36777
1746694285819.937,135,36756
1746694285820.938,135,36746
1746694285821.937,135,36735
1746694285822.938,135,36732
1746694285823.937,135,36732
1746694285824.938,135,36749
1746694285825.937,135,36766
1746694285826.844,135,36780
1746694285827.844,135,36788
1746694285828.844,135,36786
1746694285829.844,136,36778
1746694285830.844,136,36764
1746694285831.844,136,36749
1746694285832.844,136,36729
1746694285833.844,136,36713
1746694285834.844,136,36691
1746694285835.844,136,36679
1746694285836.844,136,36666
1746694285837.844,136,36658
1746694285838.844,136,36648
1746694285839.844,136,36649
1746694285840.844,137,36651
1746694285841.844,137,36650
1746694285842.719,137,36647
1746694285843.719,137,36647
1746694285844.719,137,36635
1746694285845.719,137,36623
1746694285846.719,137,36620
1746694285847.719,137,36631
1746694285848.719,137,36634
1746694285849.719,137,36636
1746694285850.719,137,36634
1746694285851.719,138,36638
1746694285852.719,138,36663
1746694285853.719,138,36720
1746694285854.719,138,36804
1746694285855.719,138,36903
1746694285856.719,138,36996
1746694285857.719,138,37068
1746694285858.594,138,37121
1746694285859.594,138,37154
1746694285860.594,138,37177
1746694285861.594,138,37195
1746694285862.594,139,37207
1746694285863.594,139,37208
1746694285864.594,139,37184
1746694285865.594,139,37151
1746694285866.594,139,37114
1746694285867.594,139,37079
1746694285868.594,139,37054
1746694285869.594,139,37027
1746694285870.594,139,37007
1746694285871.594,139,36994
1746694285872.5942,139,36982
1746694285873.594,140,36970
1746694285874.5,140,36953
1746694285875.5,140,36936
1746694285876.5,140,36903
1746694285877.5,140,36880
1746694285878.5,140,36850
1746694285879.5,140,36828
1746694285880.5,140,36798
1746694285881.5,140,36768
1746694285882.5,140,36737
1746694285883.5,140,36709
1746694285884.5,141,36695
1746694285885.5,141,36682
1746694285886.5,141,36671
1746694285887.5,141,36659
1746694285888.5,141,36651
1746694285889.5,141,36641
1746694285890.375,141,36634
1746694285891.375,141,36631
1746694285892.375,141,36629
1746694285893.375,141,36619
1746694285894.375,141,36614
1746694285895.375,142,36604
1746694285896.375,142,36593
1746694285897.375,142,36573
1746694285898.375,142,36542
1746694285899.375,142,36523
1746694285900.375,142,36491
1746694285901.375,142,36476
1746694285902.375,142,36452
1746694285903.375,142,36435
1746694285904.375,142,36418
1746694285905.375,142,36404
1746694285906.281,143,36398
1746694285907.281,143,36392
1746694285908.281,143,36400
1746694285909.281,143,36406
1746694285910.281,143,36413
1746694285911.281,143,36421
1746694285912.281,143,36426
1746694285913.281,143,36431
1746694285914.281,143,36425
1746694285915.281,143,36424
1746694285916.281,143,36417
1746694285917.281,144,36408
1746694285918.281,144,36401
1746694285919.281,144,36384
1746694285920.281,144,36368
1746694285921.281,144,36355
1746694285922.156,144,36339
1746694285923.156,144,36315
1746694285924.156,144,36295
1746694285925.156,144,36271
1746694285926.156,144,36250
1746694285927.156,144,36249
1746694285928.156,145,36240
1746694285929.156,145,36235
1746694285930.156,145,36222
1746694285931.156,145,36219
1746694285932.156,145,36219
1746694285933.156,145,36226
1746694285934.156,145,36219
1746694285935.156,145,36210
1746694285936.156,145,36202
1746694285937.156,145,36200
1746694285938.062,145,36201
1746694285939.063,146,36199
1746694285940.062,146,36209
1746694285941.063,146,36213
1746694285942.062,146,36208
1746694285943.063,146,36201
1746694285944.062,146,36193
1746694285945.0632,146,36194
1746694285946.062,146,36200
1746694285947.063,146,36205
1746694285948.062,146,36203
1746694285949.063,146,36187
1746694285950.063,147,36156
1746694285951.062,147,36125
1746694285952.063,147,36090
1746694285953.062,147,36068
1746694285953.938,147,36045
1746694285954.937,147,36029
1746694285955.938,147,36015
1746694285956.937,147,36006
1746694285957.938,147,36002
1746694285958.937,147,36005
1746694285959.938,147,35997
1746694285960.938,148,35995
1746694285961.937,148,35983
1746694285962.938,148,35979
1746694285963.937,148,35970
1746694285964.938,148,35948
1746694285965.937,148,35924
1746694285966.938,148,35896
1746694285967.937,148,35879
1746694285968.9382,148,35863
1746694285969.812,148,35850
1746694285970.813,148,35849
1746694285971.812,149,35853
1746694285972.812,149,35863
1746694285973.813,149,35879
1746694285974.812,149,35895
1746694285975.813,149,35902
1746694285976.8118,149,35895
1746694285977.813,149,35891
1746694285978.812,149,35876
1746694285979.813,149,35866
1746694285980.812,149,35847
1746694285981.813,149,35827
1746694285982.812,150,35832
1746694285983.813,150,35844
1746694285984.812,150,35849
1746694285985.719,150,35862
1746694285986.719,150,35869
1746694285987.719,150,35879
1746694285988.719,150,35894
1746694285989.719,150,35903
1746694285990.719,150,35917
1746694285991.719,150,35923
1746694285992.719,150,35935
1746694285993.719,151,35941
1746694285994.719,151,35950
1746694285995.719,151,35950
1746694285996.719,151,35937
1746694285997.719,151,35917
1746694285998.719,151,35897
1746694285999.719,151,35889
1746694286000.719,151,35876
1746694286001.625,151,35870
1746694286002.625,151,35859
1746694286003.625,151,35847
1746694286004.625,152,35839
1746694286005.625,152,35833
1746694286006.625,152,35825
1746694286007.625,152,35800
1746694286008.625,152,35783
1746694286009.625,152,35756
1746694286010.625,152,35737
1746694286011.625,152,35726
1746694286012.625,152,35715
1746694286013.625,152,35712
1746694286014.625,152,35708
1746694286015.625,153,35717
1746694286016.625,153,35717
1746694286017.469,153,35724
1746694286018.469,153,35729
1746694286019.469,153,35722
1746694286020.469,153,35718
1746694286021.4692,153,35717
1746694286022.469,153,35719
1746694286023.469,153,35724
1746694286024.469,153,35715
1746694286025.469,153,35715
1746694286026.469,154,35708
1746694286027.469,154,35698
1746694286028.469,154,35681
1746694286029.469,154,35660
1746694286030.469,154,35643
1746694286031.469,154,35633
1746694286032.469,154,35631
1746694286033.375,154,35626
1746694286034.375,154,35623
1746694286035.375,154,35629
1746694286036.375,154,35631
1746694286037.375,155,35626
1746694286038.375,155,35616
1746694286039.375,155,35607
1746694286040.375,155,35591
1746694286041.375,155,35572
1746694286042.375,155,35567
1746694286043.375,155,35557
1746694286044.375,155,35546
1746694286045.375,155,35529
1746694286046.375,155,35517
1746694286047.375,155,35507
1746694286048.375,156,35502
1746694286049.25,156,35509
1746694286050.25,156,35521
1746694286051.25,156,35544
1746694286052.25,156,35567
1746694286053.25,156,35588
1746694286054.25,156,35602
1746694286055.25,156,35597
1746694286056.25,156,35594
1746694286057.25,156,35589
1746694286058.25,156,35585
1746694286059.25,157,35583
1746694286060.25,157,35574
1746694286061.25,157,35561
1746694286062.25,157,35550
1746694286063.25,157,35543
1746694286064.25,157,35539
1746694286065.156,157,35527
1746694286066.156,157,35513
1746694286067.156,157,35493
1746694286068.156,157,35479
1746694286069.156,157,35463
1746694286070.156,158,35460
1746694286071.156,158,35460
1746694286072.156,158,35468
1746694286073.156,158,35481
1746694286074.156,158,35490
1746694286075.156,158,35502
1746694286076.156,158,35515
1746694286077.156,158,35523
1746694286078.156,158,35522
1746694286079.156,158,35522
1746694286080.156,158,35515
1746694286081.031,159,35498
1746694286082.031,159,35472
1746694286083.031,159,35455
1746694286084.031,159,35439
1746694286085.031,159,35428
1746694286086.031,159,35420
1746694286087.031,159,35405
1746694286088.031,159,35385
1746694286089.031,159,35375
1746694286090.031,159,35365
1746694286091.031,159,35357
1746694286092.031,160,35358
1746694286093.031,160,35358
1746694286094.031,160,35355
1746694286095.031,160,35359
1746694286096.031,160,35368
1746694286096.906,160,35371
1746694286097.906,160,35379
1746694286098.906,160,35370
1746694286099.906,160,35352
1746694286100.906,160,35327
1746694286101.906,160,35307
1746694286102.906,161,35295
1746694286103.906,161,35284
1746694286104.906,161,35267
1746694286105.906,161,35255
1746694286106.906,161,35238
1746694286107.906,161,35225
1746694286108.906,161,35223
1746694286109.906,161,35230
1746694286110.906,161,35247
1746694286111.906,161,35258
1746694286112.781,161,35255
1746694286113.781,162,35251
1746694286114.781,162,35243
1746694286115.781,162,35235
1746694286116.781,162,35229
1746694286117.781,162,35233
1746694286118.781,162,35224
1746694286119.781,162,35220
1746694286120.781,162,35208
1746694286121.781,162,35203
1746694286122.781,162,35196
1746694286123.781,162,35188
1746694286124.781,163,35183
1746694286125.781,163,35176
1746694286126.781,163,35171
1746694286127.781,163,35167
1746694286128.688,163,35168
1746694286129.687,163,35167
1746694286130.688,163,35168
1746694286131.687,163,35173
1746694286132.688,163,35174
1746694286133.687,163,35176
1746694286134.688,163,35169
1746694286135.687,164,35161
1746694286136.688,164,35158
1746694286137.687,164,35156
1746694286138.688,164,35162
1746694286139.687,164,35180
1746694286140.688,164,35191
1746694286141.687,164,35196
1746694286142.688,164,35206
1746694286143.687,164,35209
1746694286144.562,164,35208
1746694286145.563,164,35197
1746694286146.562,165,35182
1746694286147.563,165,35161
1746694286148.562,165,35137
1746694286149.563,165,35119
1746694286150.562,165,35101
1746694286151.563,165,35083
1746694286152.562,165,35073
1746694286153.563,165,35061
1746694286154.562,165,35051
1746694286155.562,165,35033
1746694286156.563,165,35023
1746694286157.562,166,35005
1746694286158.563,166,35007
1746694286159.562,166,35008
1746694286160.469,166,35004
1746694286161.469,166,35012
1746694286162.469,166,35019
1746694286163.469,166,35037
1746694286164.469,166,35052
1746694286165.469,166,35072
1746694286166.469,166,35078
1746694286167.469,166,35084
1746694286168.469,167,35078
1746694286169.4692,167,35081
1746694286170.469,167,35073
1746694286171.469,167,35063
1746694286172.469,167,35047
1746694286173.469,167,35025
1746694286174.469,167,35018
1746694286175.469,167,35006
1746694286176.406,167,34985
1746694286177.406,167,34969
1746694286178.406,167,34947
1746694286179.406,168,34933
1746694286180.406,168,34915
1746694286181.406,168,34913
1746694286182.406,168,34913
1746694286183.406,168,34922
1746694286184.406,168,34932
1746694286185.406,168,34939
1746694286186.406,168,34927
1746694286187.406,168,34911
1746694286188.406,168,34897
1746694286189.406,168,34881
1746694286190.406,169,34877
1746694286191.406,169,34868
1746694286192.25,169,34867
1746694286193.25,169,34865
1746694286194.25,169,34874
1746694286195.25,169,34876
1746694286196.25,169,34881
1746694286197.25,169,34885
1746694286198.25,169,34882
1746694286199.25,169,34883
1746694286200.25,169,34893
1746694286201.25,170,34897
1746694286202.25,170,34905
1746694286203.25,170,34914
1746694286204.25,170,34931
1746694286205.25,170,34939
1746694286206.25,170,34949
1746694286207.25,170,34948
1746694286208.125,170,34943
1746694286209.125,170,34940
1746694286210.125,170,34940
1746694286211.125,170,34941
1746694286212.125,171,34947
1746694286213.125,171,34944
1746694286214.125,171,34932
1746694286215.125,171,34918
1746694286216.125,171,34899
1746694286217.125,171,34890
1746694286218.125,171,34880
1746694286219.125,171,34871
1746694286220.125,171,34865
1746694286221.125,171,34865
1746694286222.125,171,34875
1746694286223.125,172,34883
1746694286224.031,172,34898
1746694286225.031,172,34907
1746694286226.031,172,34916
1746694286227.031,172,34933
1746694286228.031,172,34945
1746694286229.031,172,34958
1746694286230.031,172,34965
1746694286231.031,172,34974
1746694286232.031,172,34983
1746694286233.031,172,34996
1746694286234.031,173,35004
1746694286235.031,173,35005
1746694286236.031,173,35004
1746694286237.031,173,34999
1746694286238.031,173,34993
1746694286239.031,173,35001
1746694286239.906,173,35000
1746694286240.906,173,34994
1746694286241.906,173,34987
1746694286242.906,173,34987
1746694286243.906,173,34994
1746694286244.906,174,35009
1746694286245.906,174,35019
1746694286246.906,174,35026
1746694286247.906,174,35025
1746694286248.906,174,35013
1746694286249.906,174,34999
1746694286250.906,174,34991
1746694286251.906,174,34970
1746694286252.906,174,34954
1746694286253.906,174,34938
1746694286254.906,174,34923
1746694286255.812,175,34914
1746694286256.813,175,34895
1746694286257.812,175,34881
1746694286258.812,175,34863
1746694286259.813,175,34852
1746694286260.812,175,34846
1746694286261.813,175,34835
1746694286262.812,175,34823
1746694286263.813,175,34812
1746694286264.812,175,34798
1746694286265.8132,175,34787
1746694286266.812,176,34773
1746694286267.813,176,34761
1746694286268.812,176,34740
1746694286269.813,176,34717
1746694286270.812,176,34700
1746694286271.656,176,34672
1746694286272.656,176,34649
1746694286273.656,176,34615
1746694286274.656,176,34592
1746694286275.656,176,34563
1746694286276.656,176,34545
1746694286277.656,177,34524
1746694286278.656,177,34514
1746694286279.656,177,34521
1746694286280.656,177,34523
1746694286281.656,177,34514
1746694286282.656,177,34499
1746694286283.6558,177,34483
1746694286284.656,177,34473
1746694286285.656,177,34477
1746694286286.656,177,34500
1746694286287.563,177,34526
1746694286288.562,178,34551
1746694286289.563,178,34561
1746694286290.562,178,34575
1746694286291.563,178,34562
1746694286292.562,178,34560
1746694286293.563,178,34535
1746694286294.562,178,34507
1746694286295.563,178,34482
1746694286296.562,178,34453
1746694286297.563,178,34435
1746694286298.563,178,34410
1746694286299.562,179,34390
1746694286300.563,179,34356
1746694286301.562,179,34342
1746694286302.563,179,34329
1746694286303.469,179,34320
1746694286304.469,179,34310
1746694286305.469,179,34302
1746694286306.469,179,34299
1746694286307.469,179,34298
1746694286308.469,179,34303
1746694286309.469,179,34305
1746694286310.469,180,34306
1746694286311.469,180,34316
1746694286312.469,180,34324
1746694286313.469,180,34351
1746694286314.469,180,34366
1746694286315.469,180,34372
1746694286316.469,180,34383
1746694286317.469,180,34391
1746694286318.469,180,34401
1746694286319.344,180,34401
1746694286320.344,180,34394
1746694286321.344,181,34385
1746694286322.344,181,34373
1746694286323.344,181,34364
1746694286324.344,181,34349
1746694286325.344,181,34328
1746694286326.344,181,34311
1746694286327.344,181,34289
1746694286328.344,181,34279
1746694286329.344,181,34265
1746694286330.344,181,34263
1746694286331.344,181,34263
1746694286332.344,182,34258
1746694286333.344,182,34270
1746694286334.344,182,34265
1746694286335.25,182,34261
1746694286336.25,182,34258
1746694286337.25,182,34247
1746694286338.25,182,34240
1746694286339.25,182,34244
1746694286340.25,182,34252
1746694286341.25,182,34263
1746694286342.25,182,34267
1746694286343.25,183,34269
1746694286344.25,183,34270
1746694286345.25,183,34263
1746694286346.25,183,34258
1746694286347.25,183,34247
1746694286348.25,183,34235
1746694286349.25,183,34230
1746694286350.25,183,34235
1746694286351.125,183,34243
1746694286352.125,183,34256
1746694286353.125,183,34266
1746694286354.125,184,34259
1746694286355.125,184,34259
1746694286356.125,184,34241
1746694286357.125,184,34229
1746694286358.125,184,34206
1746694286359.125,184,34195
1746694286360.125,184,34198
1746694286361.125,184,34206
1746694286362.125,184,34227
1746694286363.125,184,34248
1746694286364.125,184,34264
1746694286365.125,185,34289
1746694286366.125,185,34313
1746694286367.031,185,34331
1746694286368.031,185,34350
1746694286369.031,185,34363
1746694286370.031,185,34380
1746694286371.031,185,34397
1746694286372.031,185,34417
1746694286373.031,185,34433
1746694286374.031,185,34447
1746694286375.031,185,34449
1746694286376.031,186,34456
1746694286377.031,186,34466
1746694286378.031,186,34487
1746694286379.031,186,34515
1746694286380.031,186,34553
1746694286381.031,186,34603
1746694286382.031,186,34665
1746694286382.906,186,34731
1746694286383.906,186,34805
1746694286384.906,186,34890
1746694286385.906,186,34975
1746694286386.906,187,35068
1746694286387.906,187,35168
1746694286388.906,187,35272
1746694286389.906,187,35385
1746694286390.906,187,35505
1746694286391.906,187,35641
1746694286392.906,187,35777
1746694286393.906,187,35916
1746694286394.906,187,36040
1746694286395.906,187,36167
1746694286396.906,187,36280
1746694286397.906,188,36378
1746694286398.813,188,36455
1746694286399.812,188,36506
1746694286400.812,188,36536
1746694286401.813,188,36540
1746694286402.812,188,36517
1746694286403.813,188,36480
1746694286404.812,188,36407
1746694286405.813,188,36312
1746694286406.812,188,36195
1746694286407.813,188,36078
1746694286408.812,189,35967
1746694286409.813,189,35855
1746694286410.812,189,35744
1746694286411.813,189,35633
1746694286412.812,189,35518
1746694286413.8132,189,35413
1746694286414.688,189,35310
1746694286415.687,189,35205
1746694286416.688,189,35106
1746694286417.687,189,35008
1746694286418.688,189,34913
1746694286419.687,190,34813
1746694286420.688,190,34687
1746694286421.6868,190,34552
1746694286422.688,190,34422
1746694286423.687,190,34271
1746694286424.688,190,34167
1746694286425.687,190,34069
1746694286426.688,190,34002
1746694286427.687,190,33958
1746694286428.688,190,33942
1746694286429.688,190,33951
1746694286430.594,191,33972
1746694286431.594,191,33992
1746694286432.594,191,34013
1746694286433.594,191,34044
1746694286434.594,191,34069
1746694286435.594,191,34098
1746694286436.594,191,34105
1746694286437.594,191,34110
1746694286438.594,191,34115
1746694286439.594,191,34110
1746694286440.594,191,34099
1746694286441.594,192,34096
1746694286442.594,192,34090
1746694286443.594,192,34074
1746694286444.594,192,34062
1746694286445.594,192,34041
1746694286446.5,192,34018
1746694286447.5,192,33994
1746694286448.5,192,33965
1746694286449.5,192,33945
1746694286450.5,192,33922
1746694286451.5,192,33915
1746694286452.5,193,33909
1746694286453.5,193,33903
1746694286454.5,193,33905
1746694286455.5,193,33903
1746694286456.5,193,33904
1746694286457.5,193,33899
1746694286458.5,193,33887
1746694286459.5,193,33869
1746694286460.5,193,33845
1746694286461.5,193,33827
1746694286462.406,193,33813
1746694286463.406,194,33802
1746694286464.406,194,33795
1746694286465.406,194,33793
1746694286466.406,194,33795
1746694286467.406,194,33796
1746694286468.406,194,33804
1746694286469.406,194,33829
1746694286470.406,194,33864
1746694286471.406,194,33889
1746694286472.406,194,33897
1746694286473.406,194,33892
1746694286474.406,195,33875
1746694286475.406,195,33864
1746694286476.406,195,33849
1746694286477.406,195,33848
1746694286478.281,195,33846
1746694286479.281,195,33845
1746694286480.281,195,33836
1746694286481.281,195,33831
1746694286482.281,195,33824
1746694286483.281,195,33819
1746694286484.281,195,33818
1746694286485.281,196,33815
1746694286486.281,196,33823
1746694286487.281,196,33831
1746694286488.281,196,33836
1746694286489.281,196,33838
1746694286490.281,196,33843
1746694286491.281,196,33841
1746694286492.281,196,33854
1746694286493.281,196,33868
1746694286494.125,196,33880
1746694286495.125,196,33883
1746694286496.125,197,33889
1746694286497.125,197,33884
1746694286498.125,197,33876
1746694286499.125,197,33869
1746694286500.125,197,33861
1746694286501.125,197,33853
1746694286502.125,197,33848
1746694286503.125,197,33849
1746694286504.125,197,33845
1746694286505.125,197,33853
1746694286506.125,197,33859
1746694286507.125,198,33870
1746694286508.125,198,33881
1746694286509.125,198,33895
1746694286510.031,198,33899
1746694286511.031,198,33890
1746694286512.031,198,33876
1746694286513.031,198,33861
1746694286514.031,198,33841
1746694286515.031,198,33836
1746694286516.031,198,33833
1746694286517.031,198,33831
1746694286518.0308,199,33831
1746694286519.031,199,33836
1746694286520.031,199,33851
1746694286521.031,199,33864
1746694286522.031,199,33872
1746694286523.031,199,33861
1746694286524.031,199,33853
1746694286525.031,199,33852
1746694286525.906,199,33845
1746694286526.906,199,33848
1746694286527.906,199,33860
1746694286528.906,200,33870
1746694286529.906,200,33879
1746694286530.906,200,33891
1746694286531.906,200,33896
1746694286532.906,200,33898
1746694286533.906,200,33891
1746694286534.906,200,33879
1746694286535.906,200,33873
1746694286536.906,200,33868
1746694286537.906,200,33875
1746694286538.906,200,33871
1746694286539.906,201,33878
1746694286540.906,201,33889
1746694286541.844,201,33900
1746694286542.844,201,33908
1746694286543.844,201,33910
1746694286544.844,201,33900
1746694286545.844,201,33889
1746694286546.844,201,33872
1746694286547.844,201,33845
1746694286548.844,201,33830
1746694286549.844,201,33817
1746694286550.844,202,33816
1746694286551.844,202,33819
1746694286552.844,202,33830
1746694286553.844,202,33845
1746694286554.844,202,33865
1746694286555.844,202,33895
1746694286556.844,202,33925
1746694286557.687,202,33953
1746694286558.688,202,33976
1746694286559.687,202,33994
1746694286560.688,202,34007
1746694286561.687,203,34015
1746694286562.6882,203,34021
1746694286563.687,203,34005
1746694286564.688,203,33992
1746694286565.687,203,33976
1746694286566.688,203,33965
1746694286567.687,203,33953
1746694286568.688,203,33953
1746694286569.687,203,33948
1746694286570.688,203,33955
1746694286571.687,203,33959
1746694286572.687,204,33968
1746694286573.563,204,33970
1746694286574.562,204,33967
1746694286575.563,204,33969
1746694286576.562,204,33962
1746694286577.563,204,33956
1746694286578.562,204,33946
1746694286579.563,204,33941
1746694286580.562,204,33929
1746694286581.563,204,33930
1746694286582.562,204,33942
1746694286583.563,205,33957
1746694286584.563,205,33964
1746694286585.562,205,33984
1746694286586.563,205,33999
1746694286587.562,205,34016
1746694286588.563,205,34035
1746694286589.469,205,34061
1746694286590.469,205,34077
1746694286591.469,205,34099
1746694286592.469,205,34103
1746694286593.469,205,34113
1746694286594.469,206,34120
1746694286595.469,206,34119
1746694286596.469,206,34107
1746694286597.469,206,34084
1746694286598.469,206,34067
1746694286599.469,206,34041
1746694286600.469,206,34027
1746694286601.469,206,34017
1746694286602.469,206,34011
1746694286603.469,206,34024
1746694286604.469,206,34033
1746694286605.375,207,34045
1746694286606.375,207,34062
1746694286607.375,207,34066
1746694286608.375,207,34069
1746694286609.375,207,34078
1746694286610.375,207,34090
1746694286611.375,207,34096
1746694286612.375,207,34117
1746694286613.375,207,34141
1746694286614.375,207,34167
1746694286615.375,207,34179
1746694286616.375,208,34182
1746694286617.375,208,34187
1746694286618.375,208,34183
1746694286619.375,208,34180
1746694286620.375,208,34172
1746694286621.25,208,34173
1746694286622.25,208,34161
1746694286623.25,208,34145
1746694286624.25,208,34133
1746694286625.25,208,34118
1746694286626.25,208,34102
1746694286627.25,209,34084
1746694286628.25,209,34063
1746694286629.25,209,34057
1746694286630.25,209,34043
1746694286631.25,209,34030
1746694286632.25,209,34023
1746694286633.25,209,34017
1746694286634.25,209,34017
1746694286635.25,209,34026
1746694286636.25,209,34044
1746694286637.125,209,34059
1746694286638.125,210,34083
1746694286639.125,210,34102
1746694286640.125,210,34116
1746694286641.125,210,34129
1746694286642.125,210,34135
1746694286643.125,210,34139
1746694286644.125,210,34143
1746694286645.125,210,34150
1746694286646.125,210,34153
1746694286647.125,210,34159
1746694286648.125,210,34167
1746694286649.125,211,34158
1746694286650.125,211,34133
1746694286651.125,211,34114
1746694286652.125,211,34089
1746694286653.0,211,34064
1746694286654.0,211,34045
1746694286655.0,211,34025
1746694286656.0,211,34005
1746694286657.0,211,33992
1746694286658.0,211,33978
1746694286659.0,211,33965
1746694286660.0,212,33948
1746694286661.0,212,33929
1746694286662.0,212,33905
1746694286663.0,212,33876
1746694286664.0,212,33859
1746694286665.0,212,33841
1746694286666.0,212,33815
1746694286667.0,212,33799
1746694286668.0,212,33781
1746694286668.875,212,33768
1746694286669.875,212,33751
1746694286670.875,213,33738
1746694286671.875,213,33728
1746694286672.875,213,33727
1746694286673.875,213,33721
1746694286674.875,213,33718
1746694286675.875,213,33703
1746694286676.875,213,33686
1746694286677.875,213,33661
1746694286678.875,213,33634
1746694286679.875,213,33609
1746694286680.875,213,33569
1746694286681.875,214,33534
1746694286682.875,214,33502
1746694286683.875,214,33475
1746694286684.781,214,33448
1746694286685.781,214,33419
1746694286686.781,214,33399
1746694286687.781,214,33390
1746694286688.781,214,33395
1746694286689.781,214,33409
1746694286690.781,214,33416
1746694286691.781,214,33423
1746694286692.781,215,33428
1746694286693.781,215,33426
1746694286694.781,215,33419
1746694286695.781,215,33405
1746694286696.781,215,33390
1746694286697.781,215,33369
1746694286698.781,215,33351
1746694286699.781,215,33335
1746694286700.688,215,33325
1746694286701.687,215,33317
1746694286702.688,215,33312
1746694286703.687,216,33306
1746694286704.688,216,33297
1746694286705.687,216,33286
1746694286706.688,216,33265
1746694286707.687,216,33247
1746694286708.688,216,33231
1746694286709.687,216,33225
1746694286710.6882,216,33221
1746694286711.687,216,33227
1746694286712.688,216,33219
1746694286713.687,216,33228
1746694286714.688,217,33236
1746694286715.688,217,33245
1746694286716.562,217,33245
1746694286717.563,217,33228
1746694286718.5618,217,33223
1746694286719.563,217,33214
1746694286720.562,217,33231
1746694286721.563,217,33239
1746694286722.562,217,33249
1746694286723.563,217,33259
1746694286724.562,217,33271
1746694286725.563,218,33278
1746694286726.562,218,33281
1746694286727.562,218,33281
1746694286728.563,218,33282
1746694286729.562,218,33277
1746694286730.563,218,33270
1746694286731.562,218,33271
1746694286732.406,218,33262
1746694286733.406,218,33257
1746694286734.406,218,33246
1746694286735.406,218,33240
1746694286736.406,219,33238
1746694286737.406,219,33239
1746694286738.406,219,33231
1746694286739.406,219,33225
1746694286740.406,219,33217
1746694286741.406,219,33213
1746694286742.406,219,33213
1746694286743.406,219,33207
1746694286744.406,219,33207
1746694286745.406,219,33212
1746694286746.406,219,33221
1746694286747.406,220,33233
1746694286748.312,220,33243
1746694286749.312,220,33245
1746694286750.313,220,33244
1746694286751.312,220,33235
1746694286752.313,220,33217
1746694286753.312,220,33203
1746694286754.313,220,33189
1746694286755.312,220,33181
1746694286756.313,220,33175
1746694286757.312,220,33175
1746694286758.313,221,33168
1746694286759.312,221,33171
1746694286760.313,221,33176
1746694286761.312,221,33179
1746694286762.313,221,33187
1746694286763.312,221,33195
1746694286764.219,221,33205
1746694286765.219,221,33209
1746694286766.219,221,33221
1746694286767.219,221,33227
1746694286768.219,221,33224
1746694286769.219,222,33222
1746694286770.219,222,33217
1746694286771.219,222,33209
1746694286772.219,222,33214
1746694286773.219,222,33212
1746694286774.219,222,33214
1746694286775.219,222,33228
1746694286776.219,222,33228
1746694286777.219,222,33236
1746694286778.219,222,33242
1746694286779.219,222,33234
1746694286780.094,223,33228
1746694286781.094,223,33226
1746694286782.094,223,33220
1746694286783.094,223,33214
1746694286784.094,223,33211
1746694286785.094,223,33216
1746694286786.094,223,33215
1746694286787.0942,223,33203
1746694286788.094,223,33185
1746694286789.094,223,33173
1746694286790.094,223,33159
1746694286791.094,224,33156
1746694286792.094,224,33141
1746694286793.094,224,33137
1746694286794.094,224,33136
1746694286795.094,224,33151
1746694286795.969,224,33175
1746694286796.969,224,33199
1746694286797.969,224,33229
1746694286798.969,224,33254
1746694286799.969,224,33271
1746694286800.969,224,33280
1746694286801.969,225,33281
1746694286802.969,225,33276
1746694286803.969,225,33266
1746694286804.969,225,33256
1746694286805.969,225,33244
1746694286806.969,225,33237
1746694286807.969,225,33226
1746694286808.969,225,33223
1746694286809.969,225,33219
1746694286810.969,225,33220
1746694286811.844,225,33214
1746694286812.844,226,33210
1746694286813.844,226,33203
1746694286814.844,226,33212
1746694286815.844,226,33225
1746694286816.844,226,33225
1746694286817.844,226,33215
1746694286818.844,226,33195
1746694286819.844,226,33163
1746694286820.844,226,33136
1746694286821.844,226,33117
1746694286822.844,226,33113
1746694286823.844,227,33115
1746694286824.844,227,33125
1746694286825.844,227,33138
1746694286826.844,227,33162
1746694286827.75,227,33184
1746694286828.75,227,33203
1746694286829.75,227,33218
1746694286830.75,227,33232
1746694286831.75,227,33237
1746694286832.75,227,33236
1746694286833.75,227,33229
1746694286834.75,228,33220
1746694286835.75,228,33213
1746694286836.75,228,33212
1746694286837.75,228,33204
1746694286838.75,228,33199
1746694286839.75,228,33180
1746694286840.75,228,33165
1746694286841.75,228,33153
1746694286842.75,228,33145
1746694286843.781,228,33138
1746694286844.781,228,33136
1746694286845.781,229,33140
1746694286846.781,229,33151
1746694286847.781,229,33167
1746694286848.781,229,33197
1746694286849.781,229,33224
1746694286850.781,229,33241
1746694286851.781,229,33254
1746694286852.781,229,33271
1746694286853.781,229,33279
1746694286854.781,229,33273
1746694286855.781,229,33265
1746694286856.781,230,33253
1746694286857.781,230,33241
1746694286858.781,230,33233
1746694286859.5632,230,33221
1746694286860.562,230,33205
1746694286861.563,230,33190
1746694286862.562,230,33177
1746694286863.563,230,33166
1746694286864.562,230,33157
1746694286865.563,230,33153
1746694286866.562,230,33152
1746694286867.563,231,33156
1746694286868.562,231,33170
1746694286869.562,231,33175
1746694286870.563,231,33188
1746694286871.562,231,33197
1746694286872.563,231,33195
1746694286873.562,231,33191
1746694286874.563,231,33191
1746694286875.437,231,33179
1746694286876.438,231,33168
1746694286877.437,231,33154
1746694286878.438,232,33142
1746694286879.437,232,33135
1746694286880.438,232,33126
1746694286881.438,232,33121
1746694286882.437,232,33117
1746694286883.438,232,33121
1746694286884.437,232,33120
1746694286885.438,232,33120
1746694286886.437,232,33124
1746694286887.438,232,33135
1746694286888.437,232,33153
1746694286889.438,233,33175
1746694286890.4368,233,33187
1746694286891.281,233,33195
1746694286892.281,233,33187
1746694286893.281,233,33185
1746694286894.281,233,33174
1746694286895.281,233,33165
1746694286896.281,233,33166
1746694286897.281,233,33155
1746694286898.281,233,33149
1746694286899.281,233,33131
1746694286900.281,234,33116
1746694286901.281,234,33100
1746694286902.281,234,33083
1746694286903.281,234,33079
1746694286904.281,234,33067
1746694286905.281,234,33075
1746694286906.281,234,33080
1746694286907.219,234,33087
1746694286908.219,234,33095
1746694286909.219,234,33103
1746694286910.219,234,33110
1746694286911.219,235,33127
1746694286912.219,235,33145
1746694286913.219,235,33165
1746694286914.219,235,33165
1746694286915.219,235,33161
1746694286916.219,235,33151
1746694286917.219,235,33134
1746694286918.219,235,33124
1746694286919.219,235,33113
1746694286920.219,235,33103
1746694286921.219,235,33110
1746694286922.219,236,33120
1746694286923.094,236,33127
1746694286924.094,236,33138
1746694286925.094,236,33147
1746694286926.094,236,33151
1746694286927.094,236,33156
1746694286928.094,236,33159
1746694286929.094,236,33152
1746694286930.094,236,33145
1746694286931.094,236,33143
1746694286932.094,236,33137
1746694286933.094,237,33137
1746694286934.094,237,33133
1746694286935.0942,237,33129
1746694286936.094,237,33124
1746694286937.094,237,33114
1746694286938.094,237,33107
1746694286939.0,237,33092
1746694286940.0,237,33083
1746694286941.0,237,33065
1746694286942.0,237,33061
1746694286943.0,237,33061
1746694286944.0,238,33055
1746694286945.0,238,33051
1746694286946.0,238,33042
1746694286947.0,238,33044
1746694286948.0,238,33049
1746694286949.0,238,33059
1746694286950.0,238,33061
1746694286951.0,238,33061
1746694286952.0,238,33055
1746694286953.0,238,33048
1746694286954.0,238,33043
1746694286954.875,239,33043
1746694286955.875,239,33039
1746694286956.875,239,33037
1746694286957.875,239,33032
1746694286958.875,239,33035
1746694286959.875,239,33035
1746694286960.875,239,33038
1746694286961.875,239,33041
1746694286962.875,239,33056
1746694286963.875,239,33082
1746694286964.875,239,33113
1746694286965.875,240,33140
1746694286966.875,240,33158
1746694286967.875,240,33161
1746694286968.875,240,33152
1746694286969.875,240,33145
1746694286970.75,240,33119
1746694286971.75,240,33103
1746694286972.75,240,33080
1746694286973.75,240,33051
1746694286974.75,240,33031
1746694286975.75,240,33012
1746694286976.75,241,33003
1746694286977.75,241,33000
1746694286978.75,241,33006
1746694286979.75,241,33024
1746694286980.75,241,33045
1746694286981.75,241,33065
1746694286982.75,241,33077
1746694286983.75,241,33080
1746694286984.75,241,33089
1746694286985.75,241,33087
1746694286986.656,241,33089
1746694286987.656,242,33082
1746694286988.656,242,33083
1746694286989.656,242,33082
1746694286990.656,242,33074
1746694286991.656,242,33063
1746694286992.656,242,33055
1746694286993.656,242,33034
1746694286994.656,242,33023
1746694286995.656,242,33012
1746694286996.656,242,33003
1746694286997.656,242,32991
1746694286998.656,243,32989
1746694286999.656,243,32979
1746694287000.656,243,32983
1746694287001.656,243,32988
1746694287002.562,243,32991
1746694287003.563,243,32989
1746694287004.562,243,32983
1746694287005.563,243,32982
1746694287006.562,243,32979
1746694287007.5632,243,32980
1746694287008.562,243,32971
1746694287009.563,244,32972
1746694287010.562,244,32983
1746694287011.563,244,32990
1746694287012.563,244,33000
1746694287013.562,244,33008
1746694287014.563,244,33020
1746694287015.562,244,33021
1746694287016.563,244,33038
1746694287017.562,244,33055
1746694287018.438,244,33066
1746694287019.437,244,33078
1746694287020.438,245,33078
1746694287021.437,245,33069
1746694287022.438,245,33066
1746694287023.438,245,33044
1746694287024.437,245,33028
1746694287025.438,245,32999
1746694287026.437,245,32981
1746694287027.438,245,32963
1746694287028.437,245,32959
1746694287029.438,245,32964
1746694287030.437,245,32976
1746694287031.4382,246,32991
1746694287032.437,246,33017
1746694287033.438,246,33043
1746694287034.344,246,33071
1746694287035.344,246,33088
1746694287036.344,246,33102
1746694287037.344,246,33105
1746694287038.344,246,33099
1746694287039.344,246,33099
1746694287040.344,246,33093
1746694287041.344,246,33087
1746694287042.344,247,33071
1746694287043.344,247,33059
1746694287044.344,247,33040
1746694287045.344,247,33018
1746694287046.344,247,33004
1746694287047.344,247,32992
1746694287048.344,247,32998
1746694287049.344,247,32996
1746694287050.187,247,33005
1746694287051.188,247,33013
1746694287052.187,247,33023
1746694287053.188,248,33037
1746694287054.187,248,33049
1746694287055.188,248,33060
1746694287056.187,248,33063
1746694287057.188,248,33065
1746694287058.187,248,33062
1746694287059.188,248,33049
1746694287060.187,248,33034
1746694287061.188,248,33027
1746694287062.187,248,33014
1746694287063.188,248,33006
1746694287064.188,249,33010
1746694287065.187,249,33019
1746694287066.125,249,33015
1746694287067.125,249,33020
1746694287068.125,249,33018
1746694287069.125,249,33025
1746694287070.125,249,33033
1746694287071.125,249,33047
1746694287072.125,249,33057
1746694287073.125,249,33055
1746694287074.125,249,33048
1746694287075.125,250,33033
1746694287076.125,250,33010
1746694287077.125,250,32991
1746694287078.125,250,32969
1746694287079.125,250,32950
1746694287080.125,250,32930
1746694287081.125,250,32923
1746694287082.0,250,32917
1746694287083.0,250,32913
1746694287084.0,250,32903
1746694287085.0,250,32895
1746694287086.0,251,32897
1746694287087.0,251,32900
1746694287088.0,251,32911
1746694287089.0,251,32923
1746694287090.0,251,32937
1746694287091.0,251,32950
1746694287092.0,251,32952
1746694287093.0,251,32953
1746694287094.0,251,32959
1746694287095.0,251,32953
1746694287096.0,251,32953
1746694287097.0,252,32953
1746694287097.938,252,32949
1746694287098.937,252,32939
1746694287099.938,252,32929
1746694287100.937,252,32932
1746694287101.938,252,32931
1746694287102.937,252,32942
1746694287103.937,252,32946
1746694287104.938,252,32957
1746694287105.937,252,32961
1746694287106.938,252,32971
1746694287107.937,253,32976
1746694287108.938,253,32978
1746694287109.937,253,32969
1746694287110.938,253,32950
1746694287111.937,253,32937
1746694287112.938,253,32924
1746694287113.844,253,32912
1746694287114.844,253,32907
1746694287115.844,253,32894
1746694287116.844,253,32894
1746694287117.844,253,32897
1746694287118.844,254,32901
1746694287119.844,254,32909
1746694287120.844,254,32919
1746694287121.844,254,32923
1746694287122.844,254,32927
1746694287123.844,254,32929
1746694287124.844,254,32943
1746694287125.844,254,32953
1746694287126.844,254,32958
1746694287127.844,254,32972
1746694287128.844,254,32983
1746694287129.687,255,32995
1746694287130.688,255,32993
1746694287131.687,255,32997
1746694287132.688,255,32991
1746694287133.687,255,32985
1746694287134.688,255,32978
1746694287135.687,255,32964
1746694287136.688,255,32951
1746694287137.687,255,32945
1746694287138.688,255,32931
1746694287139.687,255,32915
1746694287140.688,256,32906
1746694287141.687,256,32902
1746694287142.688,256,32917
1746694287143.687,256,32940
1746694287144.687,256,32957
1746694287145.594,256,32975
1746694287146.594,256,32977
1746694287147.594,256,32972
1746694287148.594,256,32962
1746694287149.594,256,32954
1746694287150.594,256,32941
1746694287151.594,257,32931
1746694287152.594,257,32923
1746694287153.594,257,32915
1746694287154.594,257,32908
1746694287155.594,257,32901
1746694287156.594,257,32888
1746694287157.594,257,32877
1746694287158.594,257,32863
1746694287159.594,257,32850
1746694287160.594,257,32844
1746694287161.5,257,32833
1746694287162.5,258,32831
1746694287163.5,258,32835
1746694287164.5,258,32831
1746694287165.5,258,32837
1746694287166.5,258,32842
1746694287167.5,258,32842
1746694287168.5,258,32833
1746694287169.5,258,32829
1746694287170.5,258,32830
1746694287171.5,258,32826
1746694287172.5,258,32835
1746694287173.5,259,32847
1746694287174.5,259,32864
1746694287175.5,259,32881
1746694287176.5,259,32902
1746694287177.406,259,32915
1746694287178.406,259,32912
1746694287179.406,259,32913
1746694287180.406,259,32909
1746694287181.406,259,32893
1746694287182.406,259,32897
1746694287183.406,259,32890
1746694287184.406,260,32892
1746694287185.406,260,32891
1746694287186.406,260,32897
1746694287187.406,260,32889
1746694287188.406,260,32878
1746694287189.406,260,32860
1746694287190.406,260,32842
1746694287191.406,260,32825
1746694287192.406,260,32817
1746694287193.281,260,32816
1746694287194.281,260,32815
1746694287195.281,261,32816
1746694287196.281,261,32825
1746694287197.2808,261,32820
1746694287198.281,261,32822
1746694287199.281,261,32812
1746694287200.281,261,32817
1746694287201.281,261,32831
1746694287202.281,261,32847
1746694287203.281,261,32866
1746694287204.281,261,32891
1746694287205.281,261,32911
1746694287206.281,262,32921
1746694287207.281,262,32926
1746694287208.281,262,32912
1746694287209.219,262,32896
1746694287210.219,262,32876
1746694287211.219,262,32863
1746694287212.219,262,32857
1746694287213.219,262,32856
1746694287214.219,262,32856
1746694287215.219,262,32849
1746694287216.219,262,32847
1746694287217.219,263,32850
1746694287218.219,263,32851
1746694287219.219,263,32857
1746694287220.219,263,32855
1746694287221.219,263,32857
1746694287222.219,263,32848
1746694287223.219,263,32832
1746694287224.219,263,32817
1746694287225.063,263,32801
1746694287226.062,263,32783
1746694287227.063,263,32776
1746694287228.062,264,32781
1746694287229.063,264,32785
1746694287230.062,264,32801
1746694287231.063,264,32816
1746694287232.062,264,32839
1746694287233.063,264,32845
1746694287234.062,264,32840
1746694287235.063,264,32835
1746694287236.063,264,32828
1746694287237.062,264,32831
1746694287238.063,264,32841
1746694287239.062,265,32845
1746694287240.063,265,32841
1746694287240.969,265,32833
1746694287241.969,265,32827
1746694287242.969,265,32823
1746694287243.969,265,32816
1746694287244.969,265,32820
1746694287245.969,265,32812
1746694287246.969,265,32803
1746694287247.969,265,32800
1746694287248.969,265,32802
1746694287249.969,266,32821
1746694287250.969,266,32854
1746694287251.969,266,32872
1746694287252.969,266,32886
1746694287253.969,266,32889
1746694287254.969,266,32889
1746694287255.969,266,32879
1746694287256.875,266,32868
1746694287257.875,266,32859
1746694287258.875,266,32843
1746694287259.875,266,32823
1746694287260.875,267,32804
1746694287261.875,267,32789
1746694287262.875,267,32777
1746694287263.875,267,32769
1746694287264.875,267,32765
1746694287265.875,267,32763
1746694287266.875,267,32776
1746694287267.875,267,32780
1746694287268.875,267,32798
1746694287269.875,267,32806
1746694287270.875,267,32811
1746694287271.875,268,32808
1746694287272.75,268,32809
1746694287273.75,268,32803
1746694287274.75,268,32805
1746694287275.75,268,32793
1746694287276.75,268,32781
1746694287277.75,268,32769
1746694287278.75,268,32749
1746694287279.75,268,32739
1746694287280.75,268,32737
1746694287281.75,268,32739
1746694287282.75,269,32749
1746694287283.75,269,32760
1746694287284.75,269,32767
1746694287285.75,269,32767
1746694287286.75,269,32775
1746694287287.75,269,32781
1746694287288.625,269,32778
1746694287289.625,269,32778
1746694287290.625,269,32773
1746694287291.625,269,32767
1746694287292.625,269,32759
1746694287293.625,270,32757
1746694287294.625,270,32752
1746694287295.625,270,32748
1746694287296.625,270,32744
1746694287297.625,270,32744
1746694287298.625,270,32749
1746694287299.625,270,32740
1746694287300.625,270,32745
1746694287301.625,270,32754
1746694287302.625,270,32767
1746694287303.625,270,32777
1746694287304.563,271,32791
1746694287305.562,271,32798
1746694287306.563,271,32795
1746694287307.562,271,32793
1746694287308.563,271,32791
1746694287309.562,271,32794
1746694287310.563,271,32793
1746694287311.562,271,32796
1746694287312.563,271,32791
1746694287313.562,271,32787
1746694287314.563,271,32785
1746694287315.562,272,32789
1746694287316.562,272,32800
1746694287317.563,272,32809
1746694287318.562,272,32834
1746694287319.563,272,32855
1746694287320.437,272,32871
1746694287321.438,272,32887
1746694287322.437,272,32905
1746694287323.438,272,32924
1746694287324.437,272,32935
1746694287325.438,272,32948
1746694287326.437,273,32946
1746694287327.437,273,32936
1746694287328.438,273,32937
1746694287329.437,273,32940
1746694287330.438,273,32935
1746694287331.437,273,32925
1746694287332.438,273,32916
1746694287333.437,273,32923
1746694287334.438,273,32934
1746694287335.437,273,32950
1746694287336.344,273,32963
1746694287337.344,274,32974
1746694287338.344,274,32988
1746694287339.344,274,32999
1746694287340.344,274,33010
1746694287341.3442,274,33031
1746694287342.344,274,33042
1746694287343.344,274,33046
1746694287344.344,274,33036
1746694287345.344,274,33023
1746694287346.344,274,33014
1746694287347.344,274,33012
1746694287348.344,275,33008
1746694287349.344,275,33005
1746694287350.344,275,33017
1746694287351.344,275,33025
1746694287352.219,275,33037
1746694287353.219,275,33044
1746694287354.219,275,33049
1746694287355.219,275,33056
1746694287356.219,275,33055
1746694287357.219,275,33061
1746694287358.219,275,33066
1746694287359.219,276,33067
1746694287360.219,276,33072
1746694287361.219,276,33077
1746694287362.219,276,33083
1746694287363.219,276,33088
1746694287364.219,276,33101
1746694287365.2192,276,33111
1746694287366.219,276,33121
1746694287367.219,276,33106
1746694287368.094,276,33093
1746694287369.094,276,33065
1746694287370.094,277,33045
1746694287371.094,277,33028
1746694287372.094,277,33010
1746694287373.094,277,32997
1746694287374.094,277,32978
1746694287375.094,277,32961
1746694287376.094,277,32943
1746694287377.094,277,32937
1746694287378.094,277,32939
1746694287379.094,277,32945
1746694287380.094,277,32955
1746694287381.094,278,32960
1746694287382.094,278,32967
1746694287383.094,278,32971
1746694287384.0,278,32977
1746694287385.0,278,32984
1746694287386.0,278,32988
1746694287387.0,278,32985
1746694287388.0,278,32973
1746694287389.0,278,32960
1746694287390.0,278,32945
1746694287391.0,278,32927
1746694287392.0,279,32911
1746694287393.0,279,32896
1746694287394.0,279,32885
1746694287395.0,279,32869
1746694287396.0,279,32852
1746694287397.0,279,32824
1746694287398.0,279,32798
1746694287399.0,279,32769
1746694287399.906,279,32737
1746694287400.906,279,32709
1746694287401.906,279,32677
1746694287402.906,280,32657
1746694287403.906,280,32637
1746694287404.906,280,32645
1746694287405.906,280,32658
1746694287406.906,280,32673
1746694287407.906,280,32687
1746694287408.906,280,32693
1746694287409.906,280,32697
1746694287410.906,280,32685
1746694287411.906,280,32673
1746694287412.906,280,32663
1746694287413.906,281,32657
1746694287414.906,281,32658
1746694287415.781,281,32650
1746694287416.781,281,32650
1746694287417.781,281,32654
1746694287418.781,281,32655
1746694287419.781,281,32656
1746694287420.781,281,32648
1746694287421.781,281,32641
1746694287422.781,281,32637
1746694287423.781,281,32629
1746694287424.781,282,32619
1746694287425.781,282,32617
1746694287426.781,282,32613
1746694287427.781,282,32605
1746694287428.781,282,32599
1746694287429.781,282,32591
1746694287430.781,282,32593
1746694287431.625,282,32586
1746694287432.625,282,32590
1746694287433.625,282,32601
1746694287434.625,282,32609
1746694287435.625,283,32613
1746694287436.625,283,32612
1746694287437.625,283,32604
1746694287438.625,283,32590
1746694287439.625,283,32583
1746694287440.625,283,32581
1746694287441.625,283,32573
1746694287442.625,283,32567
1746694287443.625,283,32572
1746694287444.625,283,32580
1746694287445.625,283,32595
1746694287446.625,284,32611
1746694287447.531,284,32619
1746694287448.531,284,32629
1746694287449.531,284,32636
1746694287450.531,284,32641
1746694287451.531,284,32644
1746694287452.531,284,32654
1746694287453.531,284,32650
1746694287454.531,284,32636
1746694287455.5308,284,32617
1746694287456.531,284,32589
1746694287457.531,285,32559
1746694287458.531,285,32535
1746694287459.531,285,32526
1746694287460.531,285,32523
1746694287461.531,285,32534
1746694287462.531,285,32545
1746694287463.406,285,32565
1746694287464.406,285,32585
1746694287465.406,285,32603
1746694287466.406,285,32621
1746694287467.406,285,32637
1746694287468.406,286,32630
1746694287469.406,286,32625
1746694287470.406,286,32605
1746694287471.406,286,32579
1746694287472.406,286,32559
1746694287473.406,286,32554
1746694287474.406,286,32557
1746694287475.406,286,32561
1746694287476.406,286,32576
1746694287477.406,286,32594
1746694287478.406,286,32627
1746694287479.344,287,32654
1746694287480.344,287,32689
1746694287481.344,287,32713
1746694287482.344,287,32741
1746694287483.344,287,32761
1746694287484.344,287,32776
1746694287485.344,287,32785
1746694287486.344,287,32785
1746694287487.344,287,32785
1746694287488.344,287,32790
1746694287489.344,287,32805
1746694287490.344,288,32828
1746694287491.344,288,32859
1746694287492.344,288,32890
1746694287493.344,288,32929
1746694287494.344,288,32970
1746694287495.219,288,33017
1746694287496.219,288,33069
1746694287497.219,288,33123
1746694287498.219,288,33199
1746694287499.219,288,33287
1746694287500.219,288,33388
1746694287501.219,289,33495
1746694287502.219,289,33604
1746694287503.219,289,33725
1746694287504.219,289,33842
1746694287505.219,289,33965
1746694287506.219,289,34086
1746694287507.219,289,34220
1746694287508.219,289,34343
1746694287509.219,289,34473
1746694287510.219,289,34601
1746694287511.125,289,34727
1746694287512.125,290,34842
1746694287513.125,290,34933
1746694287514.125,290,35003
1746694287515.125,290,35040
1746694287516.125,290,35054
1746694287517.125,290,35028
1746694287518.125,290,34970
1746694287519.125,290,34888
1746694287520.125,290,34787
1746694287521.125,290,34691
1746694287522.125,290,34584
1746694287523.125,291,34471
1746694287524.125,291,34354
1746694287525.125,291,34258
1746694287526.125,291,34151
1746694287526.969,291,34049
1746694287527.969,291,33940
1746694287528.969,291,33834
1746694287529.969,291,33728
1746694287530.969,291,33611
1746694287531.969,291,33495
1746694287532.969,291,33371
1746694287533.969,292,33244
1746694287534.969,292,33120
1746694287535.969,292,32987
1746694287536.969,292,32863
1746694287537.969,292,32755
1746694287538.969,292,32659
1746694287539.969,292,32592
1746694287540.969,292,32551
1746694287541.969,292,32532
1746694287542.906,292,32512
1746694287543.906,292,32502
1746694287544.906,293,32497
1746694287545.906,293,32494
1746694287546.906,293,32499
1746694287547.906,293,32505
1746694287548.906,293,32503
1746694287549.906,293,32499
1746694287550.906,293,32504
1746694287551.906,293,32501
1746694287552.906,293,32503
1746694287553.906,293,32493
1746694287554.906,293,32485
1746694287555.906,294,32490
1746694287556.906,294,32497
1746694287557.906,294,32514
1746694287558.781,294,32531
1746694287559.781,294,32541
1746694287560.781,294,32556
1746694287561.781,294,32562
1746694287562.781,294,32551
1746694287563.781,294,32538
1746694287564.781,294,32526
1746694287565.781,294,32506
1746694287566.781,295,32495
1746694287567.781,295,32484
1746694287568.781,295,32467
1746694287569.781,295,32453
1746694287570.781,295,32429
1746694287571.781,295,32413
1746694287572.781,295,32388
1746694287573.781,295,32381
1746694287574.687,295,32374
1746694287575.688,295,32381
1746694287576.687,295,32399
1746694287577.688,296,32416
1746694287578.687,296,32431
1746694287579.688,296,32457
1746694287580.687,296,32469
1746694287581.688,296,32476
1746694287582.687,296,32474
1746694287583.688,296,32466
1746694287584.687,296,32467
1746694287585.6882,296,32476
1746694287586.687,296,32485
1746694287587.688,296,32491
1746694287588.687,297,32498
1746694287589.688,297,32495
1746694287590.531,297,32480
1746694287591.531,297,32464
1746694287592.531,297,32444
1746694287593.531,297,32419
1746694287594.531,297,32421
1746694287595.531,297,32428
1746694287596.531,297,32427
1746694287597.531,297,32438
1746694287598.531,297,32440
1746694287599.531,298,32446
1746694287600.531,298,32449
1746694287601.531,298,32448
1746694287602.531,298,32453
1746694287603.5308,298,32458
1746694287604.531,298,32462
1746694287605.531,298,32469
1746694287606.437,298,32470
1746694287607.438,298,32469
1746694287608.437,298,32473
1746694287609.438,298,32478
1746694287610.437,299,32477
1746694287611.438,299,32480
1746694287612.437,299,32473
1746694287613.437,299,32473
1746694287614.438,299,32477
1746694287615.437,299,32481
1746694287616.438,299,32481
1746694287617.4368,299,32479
1746694287618.438,299,32469
1746694287619.437,299,32455
1746694287620.438,299,32441
1746694287621.437,300,32432
1746694287622.344,300,32431
1746694287623.344,300,32427
1746694287624.344,300,32430
1746694287625.344,300,32435
1746694287626.344,300,32444
1746694287627.344,300,32458
1746694287628.344,300,32477
1746694287629.344,300,32491
1746694287630.344,300,32513
1746694287631.344,300,32520
1746694287632.344,301,32515
1746694287633.344,301,32505
1746694287634.344,301,32493
1746694287635.344,301,32481
1746694287636.344,301,32481
1746694287637.344,301,32493
1746694287638.25,301,32504
1746694287639.25,301,32525
1746694287640.25,301,32529
1746694287641.25,301,32537
1746694287642.25,301,32534
1746694287643.25,302,32534
1746694287644.25,302,32528
1746694287645.25,302,32531
1746694287646.25,302,32536
1746694287647.25,302,32545
1746694287648.25,302,32563
1746694287649.25,302,32586
1746694287650.25,302,32613
1746694287651.25,302,32638
1746694287652.25,302,32663
1746694287653.25,302,32679
1746694287654.125,303,32687
1746694287655.125,303,32685
1746694287656.125,303,32670
1746694287657.125,303,32656
1746694287658.125,303,32637
1746694287659.125,303,32623
1746694287660.125,303,32596
1746694287661.125,303,32581
1746694287662.125,303,32566
1746694287663.125,303,32559
1746694287664.125,303,32558
1746694287665.125,304,32556
1746694287666.125,304,32571
1746694287667.125,304,32582
1746694287668.125,304,32599
1746694287669.125,304,32614
1746694287670.0,304,32622
1746694287671.0,304,32634
1746694287672.0,304,32642
1746694287673.0,304,32649
1746694287674.0,304,32651
1746694287675.0,304,32656
1746694287676.0,305,32657
1746694287677.0,305,32659
1746694287678.0,305,32666
1746694287679.0,305,32671
1746694287680.0,305,32669
1746694287681.0,305,32671
1746694287682.0,305,32677
1746694287683.0,305,32684
1746694287684.0,305,32693
1746694287685.0,305,32707
1746694287685.875,305,32708
1746694287686.875,306,32714
1746694287687.875,306,32718
1746694287688.875,306,32719
1746694287689.875,306,32725
1746694287690.875,306,32724
1746694287691.875,306,32730
1746694287692.875,306,32728
1746694287693.875,306,32732
1746694287694.875,306,32727
1746694287695.875,306,32718
1746694287696.875,306,32713
1746694287697.875,307,32713
1746694287698.875,307,32717
1746694287699.875,307,32725
1746694287700.875,307,32741
1746694287701.813,307,32745
1746694287702.812,307,32757
1746694287703.813,307,32761
1746694287704.813,307,32765
1746694287705.812,307,32778
1746694287706.813,307,32786
1746694287707.812,307,32783
1746694287708.813,308,32787
1746694287709.812,308,32791
1746694287710.813,308,32793
1746694287711.812,308,32798
1746694287712.813,308,32804
1746694287713.812,308,32813
1746694287714.813,308,32828
1746694287715.812,308,32861
1746694287716.813,308,32886
1746694287717.688,308,32904
1746694287718.687,308,32919
1746694287719.688,309,32930
1746694287720.687,309,32938
1746694287721.688,309,32944
1746694287722.687,309,32946
1746694287723.688,309,32936
1746694287724.687,309,32934
1746694287725.688,309,32930
1746694287726.687,309,32924
1746694287727.688,309,32919
1746694287728.687,309,32913
1746694287729.688,309,32913
1746694287730.687,310,32904
1746694287731.688,310,32909
1746694287732.687,310,32909
1746694287733.594,310,32901
1746694287734.594,310,32899
1746694287735.594,310,32900
1746694287736.594,310,32913
1746694287737.594,310,32944
1746694287738.594,310,32964
1746694287739.594,310,32981
1746694287740.594,310,32985
1746694287741.594,311,32975
1746694287742.594,311,32962
1746694287743.594,311,32954
1746694287744.594,311,32948
1746694287745.594,311,32948
1746694287746.594,311,32955
1746694287747.5942,311,32969
1746694287748.594,311,32971
1746694287749.438,311,32968
1746694287750.437,311,32959
1746694287751.438,311,32949
1746694287752.437,312,32937
1746694287753.438,312,32923
1746694287754.437,312,32907
1746694287755.438,312,32889
1746694287756.438,312,32871
1746694287757.437,312,32859
1746694287758.438,312,32860
1746694287759.437,312,32866
1746694287760.438,312,32890
1746694287761.437,312,32931
1746694287762.438,312,32951
1746694287763.437,313,32966
1746694287764.438,313,32977
1746694287765.344,313,32982
1746694287766.344,313,32970
1746694287767.344,313,32957
1746694287768.344,313,32940
1746694287769.344,313,32909
1746694287770.344,313,32885
1746694287771.344,313,32847
1746694287772.344,313,32822
1746694287773.344,313,32794
1746694287774.344,314,32777
1746694287775.344,314,32776
1746694287776.344,314,32780
1746694287777.344,314,32769
1746694287778.344,314,32756
1746694287779.344,314,32738
1746694287780.344,314,32720
1746694287781.25,314,32690
1746694287782.25,314,32661
1746694287783.25,314,32623
1746694287784.25,314,32606
1746694287785.25,315,32581
1746694287786.25,315,32561
1746694287787.25,315,32541
1746694287788.25,315,32518
1746694287789.25,315,32507
1746694287790.25,315,32491
1746694287791.25,315,32473
1746694287792.25,315,32464
1746694287793.25,315,32446
1746694287794.25,315,32445
1746694287795.25,315,32441
1746694287796.25,316,32441
1746694287797.156,316,32437
1746694287798.156,316,32424
1746694287799.156,316,32405
1746694287800.156,316,32387
1746694287801.156,316,32367
1746694287802.156,316,32346
1746694287803.156,316,32323
1746694287804.156,316,32302
1746694287805.156,316,32291
1746694287806.156,316,32282
1746694287807.156,317,32269
1746694287808.156,317,32258
1746694287809.156,317,32237
1746694287810.156,317,32215
1746694287811.156,317,32201
1746694287812.156,317,32195
1746694287813.031,317,32193
1746694287814.031,317,32191
1746694287815.031,317,32174
1746694287816.031,317,32161
1746694287817.031,317,32146
1746694287818.031,318,32139
1746694287819.031,318,32132
1746694287820.031,318,32135
1746694287821.031,318,32151
1746694287822.031,318,32172
1746694287823.031,318,32187
1746694287824.031,318,32196
1746694287825.031,318,32213
1746694287826.031,318,32219
1746694287827.031,318,32222
1746694287828.031,318,32221
1746694287828.906,319,32215
1746694287829.906,319,32206
1746694287830.906,319,32186
1746694287831.906,319,32171
1746694287832.906,319,32155
1746694287833.906,319,32147
1746694287834.906,319,32137
1746694287835.906,319,32131
1746694287836.906,319,32115
1746694287837.9058,319,32106
1746694287838.906,319,32091
1746694287839.906,320,32078
1746694287840.906,320,32075
1746694287841.906,320,32078
1746694287842.906,320,32088
1746694287843.906,320,32094
1746694287844.781,320,32101
1746694287845.781,320,32099
1746694287846.781,320,32094
1746694287847.781,320,32084
1746694287848.781,320,32073
1746694287849.781,320,32068
1746694287850.781,321,32067
1746694287851.781,321,32069
1746694287852.781,321,32071
1746694287853.781,321,32074
1746694287854.781,321,32081
1746694287855.781,321,32084
1746694287856.781,321,32081
1746694287857.781,321,32079
1746694287858.781,321,32089
1746694287859.781,321,32109
1746694287860.656,321,32124
1746694287861.656,322,32149
1746694287862.656,322,32163
1746694287863.656,322,32173
1746694287864.656,322,32177
1746694287865.656,322,32182
1746694287866.656,322,32187
1746694287867.656,322,32189
1746694287868.656,322,32200
1746694287869.656,322,32210
1746694287870.656,322,32218
1746694287871.656,322,32220
1746694287872.656,323,32220
1746694287873.656,323,32215
1746694287874.656,323,32207
1746694287875.656,323,32202
1746694287876.625,323,32193
1746694287877.625,323,32188
1746694287878.625,323,32179
1746694287879.625,323,32175
1746694287880.625,323,32167
1746694287881.625,323,32167
1746694287882.625,323,32154
1746694287883.625,324,32148
1746694287884.625,324,32135
1746694287885.625,324,32130
1746694287886.625,324,32121
1746694287887.625,324,32115
1746694287888.625,324,32108
1746694287889.625,324,32103
1746694287890.625,324,32104
1746694287891.625,324,32115
1746694287892.469,324,32123
1746694287893.469,324,32133
1746694287894.469,325,32143
1746694287895.469,325,32152
1746694287896.4692,325,32158
1746694287897.469,325,32167
1746694287898.469,325,32167
1746694287899.469,325,32171
1746694287900.469,325,32166
1746694287901.469,325,32167
1746694287902.469,325,32158
1746694287903.469,325,32161
1746694287904.469,325,32161
1746694287905.469,326,32164
1746694287906.469,326,32169
1746694287907.469,326,32175
1746694287908.344,326,32186
1746694287909.344,326,32185
1746694287910.344,326,32193
1746694287911.344,326,32202
1746694287912.344,326,32200
1746694287913.344,326,32203
1746694287914.344,326,32191
1746694287915.344,326,32181
1746694287916.344,327,32168
1746694287917.344,327,32167
1746694287918.344,327,32166
1746694287919.344,327,32178
1746694287920.344,327,32185
1746694287921.344,327,32205
1746694287922.344,327,32228
1746694287923.344,327,32251
1746694287924.25,327,32265
1746694287925.25,327,32285
1746694287926.25,327,32289
1746694287927.25,328,32297
1746694287928.25,328,32291
1746694287929.25,328,32292
1746694287930.25,328,32279
1746694287931.25,328,32266
1746694287932.25,328,32249
1746694287933.25,328,32237
1746694287934.25,328,32226
1746694287935.25,328,32218
1746694287936.25,328,32216
1746694287937.25,328,32208
1746694287938.25,329,32210
1746694287939.25,329,32215
1746694287940.156,329,32217
1746694287941.156,329,32214
1746694287942.156,329,32212
1746694287943.156,329,32207
1746694287944.156,329,32208
1746694287945.156,329,32208
1746694287946.156,329,32212
1746694287947.156,329,32223
1746694287948.156,329,32240
1746694287949.156,330,32257
1746694287950.156,330,32270
1746694287951.156,330,32278
1746694287952.156,330,32286
1746694287953.156,330,32281
1746694287954.156,330,32270
1746694287955.156,330,32258
1746694287956.063,330,32240
1746694287957.062,330,32223
1746694287958.063,330,32206
1746694287959.062,330,32201
1746694287960.063,331,32191
1746694287961.062,331,32184
1746694287962.063,331,32183
1746694287963.062,331,32170
1746694287964.063,331,32166
1746694287965.062,331,32154
1746694287966.063,331,32162
1746694287967.062,331,32179
1746694287968.062,331,32196
1746694287969.063,331,32214
1746694287970.062,331,32225
1746694287971.063,332,32247
1746694287971.937,332,32256
1746694287972.938,332,32260
1746694287973.937,332,32267
1746694287974.938,332,32262
1746694287975.937,332,32257
1746694287976.938,332,32244
1746694287977.937,332,32240
1746694287978.937,332,32237
1746694287979.938,332,32240
1746694287980.937,332,32235
1746694287981.938,333,32235
1746694287982.937,333,32233
1746694287983.938,333,32237
1746694287984.937,333,32242
1746694287985.938,333,32238
1746694287986.937,333,32238
1746694287987.813,333,32243
1746694287988.812,333,32243
1746694287989.813,333,32243
1746694287990.813,333,32241
1746694287991.812,333,32251
1746694287992.813,334,32259
1746694287993.812,334,32265
1746694287994.813,334,32270
1746694287995.812,334,32275
1746694287996.813,334,32283
1746694287997.812,334,32279
1746694287998.813,334,32268
1746694287999.8118,334,32259
1746694288000.813,334,32249
1746694288001.812,334,32250
1746694288002.813,334,32253
1746694288003.688,335,32256
1746694288004.687,335,32259
1746694288005.688,335,32259
1746694288006.687,335,32262
1746694288007.688,335,32265
1746694288008.687,335,32269
1746694288009.688,335,32258
1746694288010.687,335,32257
1746694288011.688,335,32246
1746694288012.687,335,32244
1746694288013.688,335,32239
1746694288014.687,336,32237
1746694288015.688,336,32234
1746694288016.687,336,32236
1746694288017.688,336,32244
1746694288018.687,336,32254
1746694288019.594,336,32252
1746694288020.594,336,32251
1746694288021.594,336,32250
1746694288022.594,336,32247
1746694288023.594,336,32239
1746694288024.594,336,32231
1746694288025.594,337,32218
1746694288026.594,337,32208
1746694288027.594,337,32198
1746694288028.594,337,32193
1746694288029.594,337,32193
1746694288030.594,337,32191
1746694288031.594,337,32189
1746694288032.594,337,32180
1746694288033.594,337,32180
1746694288034.594,337,32183
1746694288035.531,337,32192
1746694288036.531,338,32197
1746694288037.531,338,32203
1746694288038.531,338,32207
1746694288039.531,338,32212
1746694288040.531,338,32210
1746694288041.531,338,32195
1746694288042.531,338,32185
1746694288043.531,338,32174
1746694288044.531,338,32175
1746694288045.531,338,32172
1746694288046.531,338,32168
1746694288047.531,339,32173
1746694288048.531,339,32172
1746694288049.531,339,32184
1746694288050.531,339,32191
1746694288051.406,339,32201
1746694288052.406,339,32217
1746694288053.406,339,32227
1746694288054.406,339,32240
1746694288055.406,339,32245
1746694288056.406,339,32255
1746694288057.406,339,32253
1746694288058.406,340,32243
1746694288059.406,340,32236
1746694288060.406,340,32240
1746694288061.406,340,32245
1746694288062.406,340,32255
1746694288063.406,340,32269
1746694288064.406,340,32277
1746694288065.406,340,32280
1746694288066.406,340,32284
1746694288067.281,340,32279
1746694288068.281,340,32280
1746694288069.281,341,32275
1746694288070.281,341,32270
1746694288071.281,341,32263
1746694288072.2808,341,32248
1746694288073.281,341,32229
1746694288074.281,341,32219
1746694288075.281,341,32216
1746694288076.281,341,32215
1746694288077.281,341,32209
1746694288078.281,341,32195
1746694288079.281,341,32183
1746694288080.281,342,32173
1746694288081.281,342,32169
1746694288082.281,342,32167
1746694288083.156,342,32164
1746694288084.156,342,32170
1746694288085.156,342,32164
1746694288086.156,342,32166
1746694288087.156,342,32167
1746694288088.156,342,32174
1746694288089.156,342,32177
1746694288090.156,342,32179
1746694288091.156,343,32187
1746694288092.156,343,32187
1746694288093.156,343,32186
1746694288094.156,343,32185
1746694288095.156,343,32179
1746694288096.1558,343,32173
1746694288097.156,343,32173
1746694288098.156,343,32187
1746694288099.062,343,32190
1746694288100.063,343,32201
1746694288101.062,343,32196
1746694288102.063,344,32194
1746694288103.062,344,32193
1746694288104.063,344,32202
1746694288105.062,344,32218
1746694288106.063,344,32239
1746694288107.062,344,32250
1746694288108.063,344,32267
1746694288109.062,344,32273
1746694288110.063,344,32271
1746694288111.063,344,32273
1746694288112.062,344,32261
1746694288113.063,345,32259
1746694288114.062,345,32249
1746694288114.969,345,32243
1746694288115.969,345,32233
1746694288116.969,345,32230
1746694288117.969,345,32233
1746694288118.969,345,32225
1746694288119.969,345,32222
1746694288120.969,345,32206
1746694288121.969,345,32188
1746694288122.969,345,32177
1746694288123.969,346,32173
1746694288124.969,346,32171
1746694288125.969,346,32173
1746694288126.969,346,32171
1746694288127.969,346,32172
1746694288128.969,346,32170
1746694288129.969,346,32183
1746694288130.8442,346,32182
1746694288131.844,346,32186
1746694288132.844,346,32191
1746694288133.844,346,32192
1746694288134.844,347,32207
1746694288135.844,347,32217
1746694288136.844,347,32221
1746694288137.844,347,32228
1746694288138.844,347,32240
1746694288139.844,347,32253
1746694288140.844,347,32262
1746694288141.844,347,32272
1746694288142.844,347,32274
1746694288143.844,347,32282
1746694288144.844,347,32276
1746694288145.844,348,32280
1746694288146.719,348,32276
1746694288147.719,348,32265
1746694288148.719,348,32255
1746694288149.719,348,32243
1746694288150.719,348,32235
1746694288151.719,348,32223
1746694288152.719,348,32205
1746694288153.719,348,32186
1746694288154.719,348,32184
1746694288155.719,348,32179
1746694288156.719,349,32176
1746694288157.719,349,32162
1746694288158.719,349,32144
1746694288159.719,349,32136
1746694288160.719,349,32129
1746694288161.719,349,32135
1746694288162.625,349,32139
1746694288163.625,349,32148
1746694288164.625,349,32168
1746694288165.625,349,32186
1746694288166.625,349,32203
1746694288167.625,350,32214
1746694288168.625,350,32222
1746694288169.625,350,32227
1746694288170.625,350,32229
1746694288171.625,350,32241
1746694288172.625,350,32242
1746694288173.625,350,32244
1746694288174.625,350,32237
1746694288175.625,350,32231
1746694288176.625,350,32232
1746694288177.625,350,32236
1746694288178.531,351,32237
1746694288179.531,351,32238
1746694288180.531,351,32241
1746694288181.531,351,32237
1746694288182.531,351,32241
1746694288183.531,351,32236
1746694288184.531,351,32239
1746694288185.531,351,32232
1746694288186.531,351,32235
1746694288187.531,351,32235
1746694288188.531,351,32228
1746694288189.531,352,32221
1746694288190.531,352,32212
1746694288191.531,352,32205
1746694288192.531,352,32199
1746694288193.531,352,32203
1746694288194.438,352,32198
1746694288195.437,352,32196
1746694288196.438,352,32193
1746694288197.437,352,32186
1746694288198.438,352,32183
1746694288199.437,352,32169
1746694288200.438,353,32156
1746694288201.437,353,32133
1746694288202.437,353,32122
1746694288203.438,353,32128
1746694288204.437,353,32138
1746694288205.438,353,32161
1746694288206.437,353,32184
1746694288207.438,353,32206
1746694288208.437,353,32236
1746694288209.438,353,32246
1746694288210.281,353,32254
1746694288211.281,354,32253
1746694288212.281,354,32255
1746694288213.281,354,32245
1746694288214.281,354,32232
1746694288215.281,354,32221
1746694288216.281,354,32213
1746694288217.281,354,32212
1746694288218.281,354,32203
1746694288219.281,354,32200
1746694288220.281,354,32201
1746694288221.281,354,32204
1746694288222.281,355,32211
1746694288223.281,355,32218
1746694288224.281,355,32227
1746694288225.281,355,32237
1746694288226.219,355,32237
1746694288227.219,355,32232
1746694288228.219,355,32225
1746694288229.219,355,32218
1746694288230.219,355,32213
1746694288231.219,355,32209
1746694288232.219,355,32198
1746694288233.219,356,32194
1746694288234.219,356,32184
1746694288235.219,356,32181
1746694288236.219,356,32188
1746694288237.219,356,32195
1746694288238.219,356,32204
1746694288239.219,356,32211
1746694288240.2192,356,32227
1746694288241.219,356,32228
1746694288242.063,356,32231
1746694288243.062,356,32217
1746694288244.063,357,32208
1746694288245.062,357,32185
1746694288246.063,357,32169
1746694288247.062,357,32153
1746694288248.063,357,32141
1746694288249.062,357,32138
1746694288250.063,357,32138
1746694288251.062,357,32147
1746694288252.063,357,32155
1746694288253.062,357,32162
1746694288254.062,357,32169
1746694288255.063,358,32171
1746694288256.062,358,32171
1746694288257.063,358,32159
1746694288258.0,358,32148
1746694288259.0,358,32142
1746694288260.0,358,32146
1746694288261.0,358,32159
1746694288262.0,358,32176
1746694288263.0,358,32199
1746694288264.0,358,32219
1746694288265.0,358,32227
1746694288266.0,359,32240
1746694288267.0,359,32241
1746694288268.0,359,32232
1746694288269.0,359,32220
1746694288270.0,359,32207
1746694288271.0,359,32187
1746694288272.0,359,32166
1746694288273.0,359,32157
1746694288273.875,359,32150
1746694288274.875,359,32163
1746694288275.875,359,32171
1746694288276.875,360,32188
1746694288277.875,360,32200
1746694288278.875,360,32203
1746694288279.875,360,32203
1746694288280.875,360,32189
1746694288281.875,360,32177
1746694288282.875,360,32167
1746694288283.875,360,32163
1746694288284.875,360,32171
1746694288285.875,360,32179
1746694288286.875,360,32202
1746694288287.875,361,32213
1746694288288.875,361,32220
1746694288289.75,361,32218
1746694288290.75,361,32216
1746694288291.75,361,32208
1746694288292.75,361,32205
1746694288293.75,361,32191
1746694288294.75,361,32189
1746694288295.75,361,32185
1746694288296.75,361,32178
1746694288297.75,361,32175
1746694288298.75,362,32176
1746694288299.75,362,32182
1746694288300.75,362,32181
1746694288301.75,362,32179
1746694288302.75,362,32172
1746694288303.75,362,32161
1746694288304.75,362,32158
1746694288305.719,362,32158
1746694288306.719,362,32163
1746694288307.719,362,32160
1746694288308.719,362,32159
1746694288309.719,363,32156
1746694288310.719,363,32160
1746694288311.719,363,32159
1746694288312.719,363,32153
1746694288313.719,363,32153
1746694288314.719,363,32157
1746694288315.719,363,32163
1746694288316.719,363,32165
1746694288317.719,363,32166
1746694288318.719,363,32158
1746694288319.719,363,32155
1746694288320.719,364,32159
1746694288321.563,364,32162
1746694288322.562,364,32183
1746694288323.563,364,32197
1746694288324.562,364,32206
1746694288325.563,364,32203
1746694288326.562,364,32197
1746694288327.563,364,32181
1746694288328.562,364,32159
1746694288329.563,364,32147
1746694288330.562,364,32140
1746694288331.563,365,32139
1746694288332.562,365,32133
1746694288333.563,365,32134
1746694288334.563,365,32139
1746694288335.562,365,32151
1746694288336.563,365,32169
1746694288337.469,365,32174
1746694288338.469,365,32194
1746694288339.469,365,32210
1746694288340.469,365,32216
1746694288341.469,365,32219
1746694288342.469,366,32221
1746694288343.469,366,32211
1746694288344.469,366,32213
1746694288345.469,366,32211
1746694288346.469,366,32217
1746694288347.469,366,32227
1746694288348.469,366,32227
1746694288349.469,366,32231
1746694288350.469,366,32232
1746694288351.469,366,32236
1746694288352.469,366,32234
1746694288353.375,367,32220
1746694288354.375,367,32201
1746694288355.375,367,32172
1746694288356.375,367,32156
1746694288357.375,367,32135
1746694288358.375,367,32115
1746694288359.375,367,32102
1746694288360.375,367,32094
1746694288361.375,367,32091
1746694288362.375,367,32091
1746694288363.375,367,32093
1746694288364.375,368,32099
1746694288365.375,368,32098
1746694288366.375,368,32096
1746694288367.375,368,32102
1746694288368.375,368,32116
1746694288369.25,368,32127
1746694288370.25,368,32139
1746694288371.25,368,32143
1746694288372.25,368,32147
1746694288373.25,368,32156
1746694288374.25,368,32173
1746694288375.25,369,32187
1746694288376.25,369,32198
1746694288377.25,369,32202
1746694288378.25,369,32199
1746694288379.25,369,32199
1746694288380.25,369,32189
1746694288381.25,369,32178
1746694288382.25,369,32170
1746694288383.25,369,32170
1746694288384.25,369,32176
1746694288385.125,369,32186
1746694288386.125,370,32192
1746694288387.125,370,32196
1746694288388.125,370,32188
1746694288389.125,370,32187
1746694288390.125,370,32186
1746694288391.125,370,32173
1746694288392.125,370,32165
1746694288393.125,370,32161
1746694288394.125,370,32155
1746694288395.125,370,32153
1746694288396.125,370,32144
1746694288397.125,371,32137
1746694288398.125,371,32124
1746694288399.125,371,32122
1746694288400.125,371,32115
1746694288401.031,371,32109
1746694288402.031,371,32118
1746694288403.031,371,32126
1746694288404.031,371,32139
1746694288405.031,371,32153
1746694288406.031,371,32168
1746694288407.031,371,32180
1746694288408.031,372,32184
1746694288409.031,372,32189
1746694288410.031,372,32184
1746694288411.031,372,32180
1746694288412.031,372,32176
1746694288413.031,372,32165
1746694288414.031,372,32159
1746694288415.031,372,32158
1746694288416.0308,372,32162
1746694288416.937,372,32168
1746694288417.938,372,32180
1746694288418.937,373,32181
1746694288419.938,373,32187
1746694288420.937,373,32190
1746694288421.938,373,32193
1746694288422.937,373,32194
1746694288423.938,373,32192
1746694288424.937,373,32191
1746694288425.937,373,32187
1746694288426.938,373,32181
1746694288427.937,373,32176
1746694288428.938,373,32175
1746694288429.9368,374,32175
1746694288430.938,374,32174
1746694288431.937,374,32176
1746694288432.844,374,32182
1746694288433.844,374,32192
1746694288434.844,374,32208
1746694288435.844,374,32224
1746694288436.844,374,32243
1746694288437.844,374,32257
1746694288438.844,374,32260
1746694288439.844,374,32262
1746694288440.844,375,32260
1746694288441.844,375,32270
1746694288442.844,375,32281
1746694288443.844,375,32284
1746694288444.844,375,32287
1746694288445.844,375,32279
1746694288446.844,375,32278
1746694288447.844,375,32271
1746694288448.75,375,32265
1746694288449.75,375,32254
1746694288450.75,375,32249
1746694288451.75,376,32243
1746694288452.75,376,32246
1746694288453.75,376,32270
1746694288454.75,376,32302
1746694288455.75,376,32337
1746694288456.75,376,32369
1746694288457.75,376,32397
1746694288458.75,376,32429
1746694288459.75,376,32453
1746694288460.75,376,32471
1746694288461.75,376,32479
1746694288462.75,377,32471
1746694288463.75,377,32462
1746694288464.688,377,32456
1746694288465.688,377,32455
1746694288466.687,377,32445
1746694288467.688,377,32438
1746694288468.687,377,32435
1746694288469.688,377,32432
1746694288470.687,377,32432
1746694288471.688,377,32436
1746694288472.687,377,32452
1746694288473.688,378,32476
1746694288474.687,378,32497
1746694288475.688,378,32521
1746694288476.687,378,32547
1746694288477.688,378,32570
1746694288478.687,378,32593
1746694288479.688,378,32618
1746694288480.563,378,32632
1746694288481.562,378,32631
1746694288482.563,378,32635
1746694288483.562,378,32633
1746694288484.5632,379,32630
1746694288485.562,379,32635
1746694288486.563,379,32635
1746694288487.562,379,32645
1746694288488.563,379,32659
1746694288489.562,379,32688
1746694288490.563,379,32718
1746694288491.562,379,32738
1746694288492.563,379,32766
1746694288493.562,379,32784
1746694288494.562,379,32807
1746694288495.563,380,32842
1746694288496.5,380,32873
1746694288497.5,380,32903
1746694288498.5,380,32934
1746694288499.5,380,32933
1746694288500.5,380,32929
1746694288501.5,380,32924
1746694288502.5,380,32919
1746694288503.5,380,32914
1746694288504.5,380,32920
1746694288505.5,380,32927
1746694288506.5,381,32928
1746694288507.5,381,32937
1746694288508.5,381,32942
1746694288509.5,381,32947
1746694288510.5,381,32960
1746694288511.5,381,32971
1746694288512.375,381,32981
1746694288513.375,381,32990
1746694288514.375,381,32996
1746694288515.375,381,33001
1746694288516.375,381,32995
1746694288517.375,382,32986
1746694288518.375,382,32981
1746694288519.375,382,32981
1746694288520.375,382,32978
1746694288521.375,382,32961
1746694288522.375,382,32941
1746694288523.375,382,32916
1746694288524.375,382,32889
1746694288525.375,382,32873
1746694288526.375,382,32864
1746694288527.375,382,32858
1746694288528.281,383,32848
1746694288529.281,383,32840
1746694288530.281,383,32821
1746694288531.281,383,32815
1746694288532.281,383,32813
1746694288533.281,383,32809
1746694288534.281,383,32803
1746694288535.281,383,32801
1746694288536.281,383,32795
1746694288537.281,383,32789
1746694288538.281,383,32783
1746694288539.281,384,32772
1746694288540.281,384,32776
1746694288541.281,384,32768
1746694288542.281,384,32766
1746694288543.281,384,32774
1746694288544.188,384,32778
1746694288545.187,384,32782
1746694288546.187,384,32774
1746694288547.188,384,32774
1746694288548.187,384,32755
1746694288549.188,384,32739
1746694288550.187,385,32719
1746694288551.188,385,32696
1746694288552.187,385,32671
1746694288553.188,385,32656
1746694288554.187,385,32630
1746694288555.188,385,32617
1746694288556.187,385,32611
1746694288557.188,385,32592
1746694288558.187,385,32591
1746694288559.188,385,32584
1746694288560.0942,385,32571
1746694288561.094,386,32553
1746694288562.094,386,32535
1746694288563.094,386,32536
1746694288564.094,386,32545
1746694288565.094,386,32570
1746694288566.094,386,32582
1746694288567.094,386,32583
1746694288568.094,386,32575
1746694288569.094,386,32572
1746694288570.094,386,32575
1746694288571.094,386,32589
1746694288572.094,387,32595
1746694288573.094,387,32611
1746694288574.094,387,32635
1746694288575.094,387,32670
1746694288576.0,387,32699
1746694288577.0,387,32730
1746694288578.0,387,32763
1746694288579.0,387,32779
1746694288580.0,387,32797
1746694288581.0,387,32812
1746694288582.0,387,32822
1746694288583.0,388,32829
1746694288584.0,388,32839
1746694288585.0,388,32839
1746694288586.0,388,32847
1746694288587.0,388,32852
1746694288588.0,388,32849
1746694288589.0,388,32855
1746694288590.0,388,32853
1746694288591.0,388,32852
1746694288591.906,388,32848
1746694288592.906,388,32842
1746694288593.906,389,32834
1746694288594.906,389,32828
1746694288595.906,389,32816
1746694288596.906,389,32814
1746694288597.906,389,32806
1746694288598.906,389,32805
1746694288599.906,389,32811
1746694288600.906,389,32832
1746694288601.906,389,32842
1746694288602.906,389,32860
1746694288603.906,389,32883
1746694288604.906,390,32897
1746694288605.906,390,32911
1746694288606.906,390,32924
1746694288607.781,390,32920
1746694288608.781,390,32923
1746694288609.781,390,32915
1746694288610.781,390,32904
1746694288611.7808,390,32909
1746694288612.781,390,32912
1746694288613.781,390,32913
1746694288614.781,390,32914
1746694288615.781,391,32897
1746694288616.781,391,32887
1746694288617.781,391,32877
1746694288618.781,391,32880
1746694288619.781,391,32877
1746694288620.781,391,32883
1746694288621.781,391,32897
1746694288622.781,391,32918
1746694288623.719,391,32934
1746694288624.719,391,32946
1746694288625.719,391,32967
1746694288626.719,392,32989
1746694288627.719,392,33016
1746694288628.719,392,33051
1746694288629.719,392,33092
1746694288630.719,392,33129
1746694288631.719,392,33154
1746694288632.719,392,33169
1746694288633.719,392,33175
1746694288634.719,392,33185
1746694288635.719,392,33185
1746694288636.719,392,33179
1746694288637.719,393,33173
1746694288638.719,393,33180
1746694288639.594,393,33195
1746694288640.594,393,33219
1746694288641.594,393,33249
1746694288642.594,393,33293
1746694288643.594,393,33336
1746694288644.594,393,33382
1746694288645.594,393,33424
1746694288646.594,393,33471
1746694288647.594,393,33528
1746694288648.594,394,33594
1746694288649.594,394,33679
1746694288650.594,394,33780
1746694288651.594,394,33896
1746694288652.594,394,34029
1746694288653.594,394,34160
1746694288654.594,394,34300
1746694288655.531,394,34427
1746694288656.531,394,34553
1746694288657.531,394,34677
1746694288658.531,394,34799
1746694288659.531,395,34927
1746694288660.531,395,35069
1746694288661.531,395,35193
1746694288662.531,395,35313
1746694288663.531,395,35412
1746694288664.531,395,35487
1746694288665.531,395,35529
