recording_1_ecgppg_biopac_clean_data.acq
Graph Created on: 2025-05-22 11:33:37.664
Recording on: 2025-05-22 11:43:51.760
1 msec/sample
2 channels
PPG, X, PPGED-R
Volts
ECG, Y, RSPEC-R
mV
milliSec	CH1	CH13	
	337805 samples	337805 samples	
0	2.69562	-0.0384521	
1	2.69287	-0.0410461	
2	2.69226	-0.040741	
3	2.69257	-0.0370789	
4	2.69104	-0.0346375	
5	2.68738	-0.0344849	
6	2.68768	-0.0323486	
7	2.68311	-0.0315857	
8	2.68219	-0.0323486	
9	2.68097	-0.032959	
10	2.67731	-0.0340271	
11	2.67639	-0.0350952	
12	2.67273	-0.0360107	
13	2.6712	-0.0317383	
14	2.66815	-0.0276184	
15	2.66785	-0.0262451	
16	2.66449	-0.025177	
17	2.65869	-0.027771	
18	2.65808	-0.0238037	
19	2.65472	-0.0183105	
20	2.65259	-0.0213623	
21	2.64893	-0.0253296	
22	2.6474	-0.0300598	
23	2.63977	-0.0341797	
24	2.63824	-0.0360107	
25	2.63489	-0.0315857	
26	2.62939	-0.0292969	
27	2.62512	-0.0300598	
28	2.62238	-0.0314331	
29	2.61871	-0.0300598	
30	2.61536	-0.0294495	
31	2.61047	-0.0309753	
32	2.60803	-0.032196	
33	2.60345	-0.0338745	
34	2.59827	-0.0361633	
35	2.59399	-0.0352478	
36	2.58942	-0.0276184	
37	2.58514	-0.0256348	
38	2.58087	-0.0245667	
39	2.57538	-0.0263977	
40	2.5708	-0.0260925	
41	2.56622	-0.0216675	
42	2.56104	-0.0163269	
43	2.55676	-0.0126648	
44	2.55341	-0.0120544	
45	2.54913	-0.0158691	
46	2.54517	-0.0244141	
47	2.53906	-0.032196	
48	2.53448	-0.0283813	
49	2.53052	-0.0245667	
50	2.52563	-0.0259399	
51	2.52075	-0.0309753	
52	2.51251	-0.0297546	
53	2.50732	-0.0294495	
54	2.50153	-0.0302124	
55	2.49634	-0.0341797	
56	2.49115	-0.0361633	
57	2.48596	-0.0308228	
58	2.48138	-0.0215149	
59	2.4765	-0.0202942	
60	2.47162	-0.0233459	
61	2.46368	-0.0262451	
62	2.45728	-0.0286865	
63	2.453	-0.0292969	
64	2.4472	-0.0291443	
65	2.44171	-0.0285339	
66	2.43683	-0.0233459	
67	2.4292	-0.0218201	
68	2.4231	-0.0236511	
69	2.41669	-0.0273132	
70	2.40997	-0.0283813	
71	2.40356	-0.0262451	
72	2.39746	-0.0244141	
73	2.39258	-0.0257874	
74	2.38678	-0.0244141	
75	2.37854	-0.0224304	
76	2.37305	-0.020752	
77	2.36603	-0.0236511	
78	2.35931	-0.0216675	
79	2.35382	-0.0158691	
80	2.34497	-0.0154114	
81	2.33948	-0.0167847	
82	2.33185	-0.0183105	
83	2.32666	-0.015564	
84	2.32025	-0.0109863	
85	2.31262	-0.0151062	
86	2.30682	-0.0218201	
87	2.30042	-0.0230408	
88	2.29309	-0.025177	
89	2.28546	-0.0262451	
90	2.27814	-0.025177	
91	2.27142	-0.0300598	
92	2.26593	-0.0366211	
93	2.25708	-0.0361633	
94	2.25037	-0.0300598	
95	2.24182	-0.0268555	
96	2.23633	-0.0245667	
97	2.22778	-0.0213623	
98	2.22107	-0.0195313	
99	2.21375	-0.0177002	
100	2.20764	-0.0172424	
101	2.1991	-0.017395	
102	2.19299	-0.0152588	
103	2.18719	-0.0138855	
104	2.18201	-0.0120544	
105	2.17377	-0.012207	
106	2.16797	-0.0138855	
107	2.16309	-0.0140381	
108	2.15607	-0.00976563	
109	2.15057	-0.00534058	
110	2.14447	-0.00549316	
111	2.13867	-0.00717163	
112	2.13135	-0.00671387	
113	2.12891	-0.00228882	
114	2.11945	-0.000305176	
115	2.11395	-0.00274658	
116	2.10876	-0.00350952	
117	2.10327	-0.00427246	
118	2.09656	-0.00198364	
119	2.09381	-0.00152588	
120	2.08893	-0.00244141	
121	2.08191	-0.00732422	
122	2.0752	-0.0120544	
123	2.0697	-0.0163269	
124	2.06604	-0.0161743	
125	2.06055	-0.0120544	
126	2.05627	-0.00976563	
127	2.05261	-0.00946045	
128	2.04773	-0.012207	
129	2.04254	-0.0164795	
130	2.03705	-0.0192261	
131	2.03522	-0.0170898	
132	2.03003	-0.012207	
133	2.02759	-0.00717163	
134	2.02332	-0.00473022	
135	2.01813	-0.00564575	
136	2.01172	-0.00442505	
137	2.00714	-0.00320435	
138	2.005	-0.00595093	
139	2.00104	-0.0109863	
140	1.99585	-0.0152588	
141	1.99219	-0.019989	
142	1.99097	-0.0260925	
143	1.98669	-0.0314331	
144	1.9812	-0.0297546	
145	1.97845	-0.0276184	
146	1.97388	-0.027771	
147	1.97266	-0.0320435	
148	1.96808	-0.0382996	
149	1.96838	-0.0434875	
150	1.96411	-0.043335	
151	1.96136	-0.0389099	
152	1.95831	-0.0367737	
153	1.9577	-0.0370789	
154	1.95496	-0.0434875	
155	1.95374	-0.0497437	
156	1.95313	-0.0556946	
157	1.94977	-0.0556946	
158	1.94885	-0.052948	
159	1.9455	-0.0523376	
160	1.94611	-0.0546265	
161	1.94397	-0.0563049	
162	1.94366	-0.0590515	
163	1.93909	-0.0640869	
164	1.93787	-0.0701904	
165	1.93878	-0.0756836	
166	1.93481	-0.0788879	
167	1.93329	-0.0816345	
168	1.9339	-0.0831604	
169	1.93085	-0.0814819	
170	1.93237	-0.0787354	
171	1.92963	-0.0762939	
172	1.92719	-0.0756836	
173	1.92596	-0.0759888	
174	1.92444	-0.0747681	
175	1.92413	-0.075531	
176	1.92352	-0.0772095	
177	1.92261	-0.0778198	
178	1.91925	-0.0811768	
179	1.91864	-0.0839233	
180	1.91864	-0.0854492	
181	1.91925	-0.0854492	
182	1.91925	-0.0869751	
183	1.91864	-0.0878906	
184	1.91772	-0.0883484	
185	1.91833	-0.0900269	
186	1.91498	-0.0912476	
187	1.91406	-0.092926	
188	1.91345	-0.0939941	
189	1.91254	-0.0907898	
190	1.91345	-0.090332	
191	1.91254	-0.0933838	
192	1.91193	-0.0979614	
193	1.90887	-0.0996399	
194	1.90735	-0.0982666	
195	1.90674	-0.0975037	
196	1.90491	-0.102692	
197	1.9046	-0.107727	
198	1.90308	-0.112762	
199	1.89972	-0.116882	
200	1.90155	-0.119629	
201	1.89972	-0.119934	
202	1.89789	-0.118103	
203	1.89728	-0.117645	
204	1.89514	-0.115051	
205	1.89087	-0.110931	
206	1.88995	-0.110779	
207	1.88812	-0.114288	
208	1.88477	-0.115051	
209	1.88416	-0.11795	
210	1.8808	-0.120239	
211	1.87927	-0.12207	
212	1.87592	-0.122528	
213	1.875	-0.121307	
214	1.87225	-0.123138	
215	1.87012	-0.12619	
216	1.86676	-0.131531	
217	1.86493	-0.132294	
218	1.86371	-0.133057	
219	1.86066	-0.136414	
220	1.8576	-0.13443	
221	1.85608	-0.126953	
222	1.85425	-0.113983	
223	1.8512	-0.100708	
224	1.84937	-0.0953674	
225	1.84601	-0.0923157	
226	1.8457	-0.0878906	
227	1.84174	-0.0831604	
228	1.84052	-0.078125	
229	1.8396	-0.0740051	
230	1.83899	-0.0701904	
231	1.83533	-0.0602722	
232	1.83594	-0.045929	
233	1.83136	-0.0338745	
234	1.83044	-0.0259399	
235	1.82953	-0.0157166	
236	1.82587	0.000915527	
237	1.82373	0.0190735	
238	1.82159	0.0340271	
239	1.81946	0.0456238	
240	1.8161	0.0553894	
241	1.8158	0.0617981	
242	1.81244	0.0691223	
243	1.8103	0.0756836	
244	1.80634	0.0747681	
245	1.80481	0.0691223	
246	1.80145	0.068512	
247	1.7984	0.0653076	
248	1.79596	0.0611877	
249	1.79535	0.0553894	
250	1.78772	0.0453186	
251	1.78558	0.0263977	
252	1.78162	0.00579834	
253	1.78162	-0.00839233	
254	1.77795	-0.0193787	
255	1.77338	-0.032196	
256	1.77063	-0.0492859	
257	1.76666	-0.0773621	
258	1.763	-0.115051	
259	1.75842	-0.149078	
260	1.75812	-0.17395	
261	1.75354	-0.176544	
262	1.74866	-0.176392	
263	1.74377	-0.178833	
264	1.73828	-0.1828	
265	1.73737	-0.183411	
266	1.7337	-0.183563	
267	1.72913	-0.180664	
268	1.72791	-0.17807	
269	1.72272	-0.177002	
270	1.71783	-0.181274	
271	1.71692	-0.186157	
272	1.71204	-0.19455	
273	1.70898	-0.209351	
274	1.70715	-0.228577	
275	1.70288	-0.254517	
276	1.69739	-0.274658	
277	1.69373	-0.277405	
278	1.68945	-0.263977	
279	1.68732	-0.244598	
280	1.68518	-0.224152	
281	1.67999	-0.2034	
282	1.67725	-0.181885	
283	1.67542	-0.153961	
284	1.67023	-0.125885	
285	1.66565	-0.10498	
286	1.6629	-0.0840759	
287	1.65741	-0.0682068	
288	1.65405	-0.0566101	
289	1.65039	-0.0479126	
290	1.64612	-0.043335	
291	1.64307	-0.0419617	
292	1.63879	-0.0372314	
293	1.63147	-0.0334167	
294	1.62598	-0.0300598	
295	1.62384	-0.0267029	
296	1.61865	-0.0247192	
297	1.61407	-0.0244141	
298	1.60889	-0.022583	
299	1.60431	-0.0212097	
300	1.59668	-0.0201416	
301	1.59424	-0.0227356	
302	1.58966	-0.0238037	
303	1.58234	-0.0193787	
304	1.58051	-0.0109863	
305	1.57318	-0.00335693	
306	1.56677	-0.00259399	
307	1.56189	-0.00366211	
308	1.55823	-0.00350952	
309	1.55212	-0.000457764	
310	1.54785	-0.000152588	
311	1.54266	0.00183105	
312	1.53748	0.00289917	
313	1.5332	0.00488281	
314	1.52802	0.00473022	
315	1.52191	0.00747681	
316	1.51581	0.01297	
317	1.51123	0.0186157	
318	1.50665	0.0205994	
319	1.50146	0.0196838	
320	1.49658	0.0198364	
321	1.48926	0.0201416	
322	1.48651	0.0222778	
323	1.4801	0.0231934	
324	1.47308	0.0219727	
325	1.46881	0.0219727	
326	1.46423	0.0222778	
327	1.45844	0.0219727	
328	1.45203	0.0221252	
329	1.44806	0.0202942	
330	1.44318	0.0175476	
331	1.43555	0.0183105	
332	1.42822	0.0170898	
333	1.42242	0.017395	
334	1.41785	0.018158	
335	1.41327	0.0193787	
336	1.40533	0.0215149	
337	1.40076	0.0238037	
338	1.39587	0.0244141	
339	1.38977	0.0248718	
340	1.38336	0.0222778	
341	1.37817	0.0224304	
342	1.3739	0.0221252	
343	1.36963	0.0238037	
344	1.3623	0.0253296	
345	1.3559	0.0267029	
346	1.34949	0.0270081	
347	1.3446	0.0283813	
348	1.33911	0.0308228	
349	1.33209	0.0296021	
350	1.32813	0.0294495	
351	1.3208	0.0320435	
352	1.31561	0.0341797	
353	1.31165	0.0344849	
354	1.30219	0.0361633	
355	1.29761	0.0395203	
356	1.29211	0.0421143	
357	1.28632	0.043335	
358	1.28143	0.0418091	
359	1.27411	0.0415039	
360	1.2677	0.0457764	
361	1.2616	0.0492859	
362	1.25458	0.0509644	
363	1.24817	0.0531006	
364	1.24146	0.055542	
365	1.23779	0.0585938	
366	1.23016	0.0627136	
367	1.22467	0.0654602	
368	1.22009	0.0700378	
369	1.21429	0.0732422	
370	1.20728	0.0758362	
371	1.20026	0.075531	
372	1.19385	0.0758362	
373	1.18927	0.0752258	
374	1.18439	0.0762939	
375	1.17889	0.0801086	
376	1.17401	0.0831604	
377	1.16608	0.0888062	
378	1.16058	0.0982666	
379	1.15662	0.110016	
380	1.15112	0.117188	
381	1.14502	0.120239	
382	1.13983	0.123901	
383	1.13434	0.124664	
384	1.13037	0.126343	
385	1.12427	0.128784	
386	1.11938	0.131989	
387	1.11542	0.13504	
388	1.10962	0.13855	
389	1.10657	0.138855	
390	1.10291	0.140381	
391	1.09741	0.139313	
392	1.09283	0.137329	
393	1.08673	0.136871	
394	1.08154	0.137787	
395	1.08032	0.140228	
396	1.073	0.142365	
397	1.07025	0.146942	
398	1.06628	0.151367	
399	1.0611	0.149689	
400	1.05621	0.148163	
401	1.05072	0.144958	
402	1.04706	0.143127	
403	1.04248	0.144196	
404	1.0376	0.142517	
405	1.03607	0.143738	
406	1.02905	0.144348	
407	1.02417	0.144806	
408	1.02142	0.146332	
409	1.01379	0.148468	
410	1.01135	0.151062	
411	1.00677	0.15152	
412	1.00159	0.150757	
413	0.997314	0.149994	
414	0.992126	0.154266	
415	0.984497	0.158234	
416	0.979309	0.160675	
417	0.975037	0.161285	
418	0.969849	0.159454	
419	0.965271	0.161438	
420	0.957947	0.164337	
421	0.95459	0.166321	
422	0.950623	0.166016	
423	0.944214	0.165558	
424	0.93811	0.164185	
425	0.933533	0.163727	
426	0.926208	0.164185	
427	0.923767	0.166016	
428	0.916138	0.165558	
429	0.91095	0.162811	
430	0.906677	0.161438	
431	0.902405	0.163727	
432	0.895996	0.165863	
433	0.891418	0.166321	
434	0.886536	0.166168	
435	0.881958	0.166321	
436	0.875549	0.165405	
437	0.870972	0.163727	
438	0.865173	0.162964	
439	0.861816	0.158691	
440	0.857239	0.155792	
441	0.852661	0.153809	
442	0.846863	0.156403	
443	0.839844	0.157013	
444	0.835266	0.154419	
445	0.831909	0.152283	
446	0.829773	0.151367	
447	0.825806	0.151367	
448	0.820618	0.150909	
449	0.817566	0.146484	
450	0.813293	0.144653	
451	0.812683	0.144196	
452	0.808105	0.146484	
453	0.805969	0.150909	
454	0.802307	0.150757	
455	0.801086	0.149384	
456	0.797424	0.147247	
457	0.793762	0.146637	
458	0.791626	0.145874	
459	0.792236	0.146637	
460	0.791016	0.144806	
461	0.787964	0.143433	
462	0.786438	0.141144	
463	0.787964	0.138855	
464	0.786438	0.136719	
465	0.783081	0.136261	
466	0.782166	0.134583	
467	0.785828	0.132446	
468	0.787659	0.131378	
469	0.785522	0.129242	
470	0.787354	0.127716	
471	0.787964	0.126953	
472	0.788879	0.127716	
473	0.792236	0.127411	
474	0.795898	0.12558	
475	0.799561	0.127106	
476	0.801392	0.125885	
477	0.806274	0.124969	
478	0.811462	0.123749	
479	0.816956	0.119629	
480	0.822144	0.11734	
481	0.830383	0.117035	
482	0.835266	0.114746	
483	0.841675	0.110474	
484	0.85022	0.109863	
485	0.856018	0.109863	
486	0.866394	0.109253	
487	0.875854	0.105591	
488	0.885315	0.103302	
489	0.895386	0.101471	
490	0.905762	0.100403	
491	0.919189	0.0984192	
492	0.930176	0.0975037	
493	0.940552	0.0944519	
494	0.95459	0.092926	
495	0.968018	0.0880432	
496	0.982971	0.0827026	
497	0.996704	0.0805664	
498	1.00922	0.0802612	
499	1.02386	0.0801086	
500	1.03943	0.0802612	
501	1.05377	0.0804138	
502	1.07269	0.0794983	
503	1.08704	0.075531	
504	1.10168	0.0724792	
505	1.12091	0.0698853	
506	1.13647	0.071106	
507	1.15387	0.0720215	
508	1.17279	0.0686646	
509	1.18988	0.0668335	
510	1.20911	0.0653076	
511	1.22772	0.0636292	
512	1.24573	0.0631714	
513	1.2677	0.0621033	
514	1.28357	0.0622559	
515	1.30219	0.0631714	
516	1.32172	0.0653076	
517	1.34125	0.0657654	
518	1.35925	0.065155	
519	1.37817	0.0648499	
520	1.39526	0.0616455	
521	1.41449	0.0610352	
522	1.43402	0.06073	
523	1.45355	0.0601196	
524	1.47186	0.0566101	
525	1.48804	0.0558472	
526	1.50787	0.058136	
527	1.52679	0.0611877	
528	1.54327	0.0631714	
529	1.56158	0.063324	
530	1.58081	0.0628662	
531	1.60095	0.0608826	
532	1.61896	0.0590515	
533	1.63513	0.0602722	
534	1.65497	0.0608826	
535	1.67419	0.0610352	
536	1.69037	0.0616455	
537	1.70898	0.062561	
538	1.72699	0.06073	
539	1.74316	0.0579834	
540	1.76117	0.0553894	
541	1.77765	0.055542	
542	1.7926	0.057373	
543	1.81	0.0561523	
544	1.82678	0.055542	
545	1.84174	0.0518799	
546	1.85669	0.0509644	
547	1.87317	0.0558472	
548	1.88782	0.0575256	
549	1.90369	0.0544739	
550	1.91803	0.0505066	
551	1.93054	0.0486755	
552	1.9455	0.0492859	
553	1.95618	0.052948	
554	1.9693	0.0537109	
555	1.98334	0.0556946	
556	1.99615	0.0552368	
557	2.00867	0.0552368	
558	2.01782	0.0538635	
559	2.03064	0.0526428	
560	2.04224	0.0532532	
561	2.05292	0.0556946	
562	2.06512	0.0572205	
563	2.07397	0.0556946	
564	2.08435	0.0559998	
565	2.09412	0.0563049	
566	2.10083	0.0559998	
567	2.11212	0.0559998	
568	2.12036	0.0553894	
569	2.12677	0.0514221	
570	2.13776	0.0469971	
571	2.14447	0.0431824	
572	2.14996	0.0413513	
573	2.15912	0.043335	
574	2.16522	0.0465393	
575	2.17163	0.0506592	
576	2.17773	0.0518799	
577	2.18445	0.052948	
578	2.19025	0.0497437	
579	2.19452	0.0466919	
580	2.20123	0.0483704	
581	2.20734	0.0497437	
582	2.21161	0.0512695	
583	2.21649	0.0511169	
584	2.22107	0.0520325	
585	2.22382	0.0526428	
586	2.22748	0.0506592	
587	2.2287	0.045929	
588	2.23236	0.0439453	
589	2.23663	0.0437927	
590	2.23663	0.0457764	
591	2.23999	0.0471497	
592	2.24091	0.0495911	
593	2.24182	0.0511169	
594	2.24487	0.0517273	
595	2.2464	0.0508118	
596	2.24701	0.0511169	
597	2.2464	0.0547791	
598	2.24701	0.0590515	
599	2.2467	0.0608826	
600	2.2467	0.0611877	
601	2.24365	0.0611877	
602	2.2467	0.0604248	
603	2.24426	0.0592041	
604	2.24274	0.06073	
605	2.24243	0.0627136	
606	2.2403	0.0627136	
607	2.23969	0.0610352	
608	2.23755	0.0610352	
609	2.23663	0.0608826	
610	2.23633	0.0613403	
611	2.23297	0.0640869	
612	2.23206	0.0665283	
613	2.229	0.0701904	
614	2.22717	0.0708008	
615	2.22504	0.0695801	
616	2.2229	0.0654602	
617	2.22076	0.0634766	
618	2.21771	0.0614929	
619	2.21588	0.0628662	
620	2.21191	0.065155	
621	2.20795	0.065155	
622	2.20612	0.0637817	
623	2.20367	0.0614929	
624	2.1994	0.0590515	
625	2.19635	0.0582886	
626	2.19299	0.0576782	
627	2.18964	0.0556946	
628	2.18842	0.0570679	
629	2.18414	0.0559998	
630	2.17896	0.0563049	
631	2.17682	0.0561523	
632	2.17377	0.0561523	
633	2.1698	0.0561523	
634	2.16675	0.0567627	
635	2.16431	0.0584412	
636	2.16217	0.0587463	
637	2.15515	0.0564575	
638	2.15363	0.0564575	
639	2.14844	0.0561523	
640	2.14478	0.0561523	
641	2.1405	0.0561523	
642	2.13898	0.0552368	
643	2.13623	0.0549316	
644	2.13074	0.0535583	
645	2.12585	0.0526428	
646	2.12097	0.0509644	
647	2.11578	0.0502014	
648	2.11273	0.0520325	
649	2.10999	0.0534058	
650	2.10602	0.0532532	
651	2.10144	0.0494385	
652	2.09595	0.0468445	
653	2.09137	0.0465393	
654	2.08466	0.0463867	
655	2.08099	0.0479126	
656	2.07642	0.0508118	
657	2.0697	0.0534058	
658	2.06238	0.0538635	
659	2.05902	0.0515747	
660	2.052	0.0488281	
661	2.0459	0.0460815	
662	2.03979	0.0469971	
663	2.03461	0.0497437	
664	2.02728	0.0469971	
665	2.02209	0.045166	
666	2.01508	0.043335	
667	2.00806	0.039978	
668	2.00195	0.0408936	
669	1.99341	0.045166	
670	1.98669	0.0466919	
671	1.9812	0.0456238	
672	1.97632	0.043335	
673	1.96869	0.0413513	
674	1.96228	0.0413513	
675	1.95465	0.0431824	
676	1.94916	0.0445557	
677	1.94275	0.0480652	
678	1.93726	0.0489807	
679	1.92993	0.045929	
680	1.92413	0.0431824	
681	1.91803	0.0413513	
682	1.9101	0.039978	
683	1.90369	0.0402832	
684	1.89758	0.0393677	
685	1.89117	0.0378418	
686	1.88538	0.0408936	
687	1.88049	0.0415039	
688	1.87439	0.0411987	
689	1.86615	0.0410461	
690	1.86096	0.0408936	
691	1.85669	0.0384521	
692	1.85059	0.0369263	
693	1.84204	0.0410461	
694	1.83624	0.0442505	
695	1.83197	0.0469971	
696	1.82526	0.0483704	
697	1.81885	0.0489807	
698	1.81488	0.0488281	
699	1.81	0.0483704	
700	1.80084	0.0505066	
701	1.79504	0.0494385	
702	1.79016	0.0488281	
703	1.78528	0.0508118	
704	1.77704	0.0491333	
705	1.77246	0.045929	
706	1.76788	0.0440979	
707	1.76392	0.0436401	
708	1.75659	0.0442505	
709	1.7511	0.0450134	
710	1.74377	0.0437927	
711	1.73828	0.0419617	
712	1.73401	0.0418091	
713	1.72882	0.043335	
714	1.72424	0.0418091	
715	1.71906	0.0422668	
716	1.71326	0.042572	
717	1.70654	0.043335	
718	1.70197	0.0410461	
719	1.69739	0.0411987	
720	1.6922	0.0416565	
721	1.68701	0.0411987	
722	1.68243	0.043335	
723	1.67572	0.0445557	
724	1.67236	0.0462341	
725	1.66534	0.0491333	
726	1.6626	0.052948	
727	1.65833	0.0537109	
728	1.65466	0.0541687	
729	1.6507	0.0567627	
730	1.64398	0.0584412	
731	1.63971	0.0582886	
732	1.63574	0.0592041	
733	1.62903	0.0604248	
734	1.62354	0.0604248	
735	1.62079	0.0634766	
736	1.61896	0.0674438	
737	1.61163	0.0708008	
738	1.60645	0.0718689	
739	1.60156	0.0712585	
740	1.60034	0.0700378	
741	1.59546	0.0669861	
742	1.59058	0.070343	
743	1.58966	0.0706482	
744	1.58417	0.0700378	
745	1.57898	0.0692749	
746	1.57654	0.0708008	
747	1.5744	0.068512	
748	1.57135	0.0640869	
749	1.56708	0.0582886	
750	1.56525	0.0553894	
751	1.56128	0.0538635	
752	1.56036	0.0556946	
753	1.5564	0.0563049	
754	1.55243	0.0567627	
755	1.54785	0.0590515	
756	1.54663	0.0608826	
757	1.54663	0.0587463	
758	1.54297	0.0558472	
759	1.54236	0.0538635	
760	1.54053	0.0537109	
761	1.53717	0.0553894	
762	1.53656	0.0579834	
763	1.53534	0.0587463	
764	1.53412	0.0579834	
765	1.53351	0.0538635	
766	1.53229	0.0492859	
767	1.53229	0.0468445	
768	1.53229	0.0462341	
769	1.52832	0.0460815	
770	1.52679	0.0454712	
771	1.5274	0.0430298	
772	1.52557	0.0408936	
773	1.52496	0.0416565	
774	1.52435	0.0415039	
775	1.52222	0.0431824	
776	1.52222	0.0436401	
777	1.52191	0.0419617	
778	1.52222	0.0413513	
779	1.52222	0.0422668	
780	1.52039	0.0436401	
781	1.51733	0.0440979	
782	1.51703	0.0415039	
783	1.52008	0.0413513	
784	1.51733	0.0392151	
785	1.51703	0.0346375	
786	1.51642	0.0341797	
787	1.5155	0.0326538	
788	1.51276	0.0309753	
789	1.51245	0.0267029	
790	1.51398	0.0227356	
791	1.51306	0.0193787	
792	1.51154	0.0154114	
793	1.51276	0.0149536	
794	1.51062	0.017395	
795	1.50757	0.0195313	
796	1.50787	0.0195313	
797	1.50757	0.0204468	
798	1.50726	0.019989	
799	1.50604	0.0201416	
800	1.50238	0.0218201	
801	1.50238	0.0241089	
802	1.50177	0.0244141	
803	1.50238	0.0245667	
804	1.50238	0.0228882	
805	1.50238	0.0212097	
806	1.49841	0.0189209	
807	1.49811	0.017395	
808	1.49719	0.0178528	
809	1.49567	0.0196838	
810	1.49414	0.0215149	
811	1.49323	0.022583	
812	1.49078	0.0238037	
813	1.4917	0.0195313	
814	1.49139	0.0166321	
815	1.48804	0.0149536	
816	1.48804	0.0166321	
817	1.48651	0.0160217	
818	1.48621	0.0164795	
819	1.48254	0.0178528	
820	1.48315	0.020752	
821	1.48163	0.0213623	
822	1.47858	0.0202942	
823	1.47766	0.0187683	
824	1.47766	0.0192261	
825	1.4743	0.0213623	
826	1.47339	0.0213623	
827	1.47278	0.0198364	
828	1.46881	0.0177002	
829	1.46851	0.0193787	
830	1.46667	0.0187683	
831	1.46484	0.0166321	
832	1.46484	0.015564	
833	1.46423	0.0216675	
834	1.45935	0.0280762	
835	1.45782	0.0296021	
836	1.45874	0.0271606	
837	1.45599	0.0247192	
838	1.4563	0.0219727	
839	1.45386	0.0228882	
840	1.45233	0.0271606	
841	1.45172	0.0289917	
842	1.44928	0.0299072	
843	1.44897	0.0315857	
844	1.44714	0.0317383	
845	1.44318	0.0291443	
846	1.44379	0.0297546	
847	1.44257	0.0369263	
848	1.4389	0.0462341	
849	1.4386	0.0575256	
850	1.43524	0.0650024	
851	1.43372	0.0708008	
852	1.43433	0.0758362	
853	1.4328	0.0804138	
854	1.42944	0.0868225	
855	1.42822	0.0895691	
856	1.42548	0.0906372	
857	1.42365	0.0979614	
858	1.42242	0.108185	
859	1.41968	0.122375	
860	1.41693	0.138855	
861	1.41327	0.156403	
862	1.4093	0.171051	
863	1.40991	0.185852	
864	1.40533	0.201111	
865	1.40259	0.21286	
866	1.39984	0.220337	
867	1.39893	0.225067	
868	1.39526	0.230255	
869	1.39099	0.234222	
870	1.38885	0.234833	
871	1.38367	0.232391	
872	1.38	0.227051	
873	1.37573	0.222626	
874	1.37512	0.21759	
875	1.37146	0.211029	
876	1.36688	0.199738	
877	1.36505	0.185699	
878	1.36108	0.171356	
879	1.3562	0.158386	
880	1.35376	0.140686	
881	1.35101	0.112762	
882	1.34735	0.0759888	
883	1.3443	0.0360107	
884	1.34186	-0.00228882	
885	1.33972	-0.0363159	
886	1.33606	-0.0592041	
887	1.3324	-0.0784302	
888	1.32721	-0.0924683	
889	1.32538	-0.0933838	
890	1.32019	-0.0912476	
891	1.31592	-0.0906372	
892	1.315	-0.0926208	
893	1.30981	-0.0939941	
894	1.30676	-0.0947571	
895	1.3028	-0.0930786	
896	1.29883	-0.09552	
897	1.29608	-0.103912	
898	1.29242	-0.11673	
899	1.28784	-0.133972	
900	1.28723	-0.156555	
901	1.28174	-0.176849	
902	1.27777	-0.187988	
903	1.27289	-0.189514	
904	1.27075	-0.180054	
905	1.26404	-0.163574	
906	1.26129	-0.142365	
907	1.25641	-0.118561	
908	1.25183	-0.0895691	
909	1.24878	-0.0653076	
910	1.24298	-0.0460815	
911	1.2381	-0.027771	
912	1.23413	-0.014801	
913	1.23199	-0.00473022	
914	1.22498	0.00610352	
915	1.21979	0.0164795	
916	1.21429	0.0222778	
917	1.21216	0.0242615	
918	1.20544	0.0216675	
919	1.20239	0.0187683	
920	1.1972	0.018158	
921	1.19019	0.0215149	
922	1.18805	0.0228882	
923	1.18469	0.0224304	
924	1.18073	0.0222778	
925	1.17371	0.0238037	
926	1.16852	0.0245667	
927	1.16425	0.0218201	
928	1.16089	0.0195313	
929	1.15387	0.0189209	
930	1.14899	0.0215149	
931	1.14349	0.0221252	
932	1.13892	0.0219727	
933	1.13525	0.0227356	
934	1.13007	0.0265503	
935	1.12427	0.0306702	
936	1.11969	0.0308228	
937	1.11481	0.0294495	
938	1.10718	0.0273132	
939	1.10229	0.0262451	
940	1.09741	0.0260925	
941	1.09222	0.0292969	
942	1.08582	0.0285339	
943	1.08185	0.0270081	
944	1.07635	0.0267029	
945	1.07025	0.0296021	
946	1.06354	0.0315857	
947	1.05774	0.032196	
948	1.05316	0.032959	
949	1.04858	0.0308228	
950	1.04279	0.0300598	
951	1.03638	0.0314331	
952	1.03119	0.0318909	
953	1.02631	0.0318909	
954	1.01898	0.0335693	
955	1.01654	0.0323486	
956	1.01135	0.0315857	
957	1.00677	0.0291443	
958	1.00159	0.0263977	
959	0.997009	0.0263977	
960	0.993347	0.0267029	
961	0.989685	0.0270081	
962	0.985107	0.0263977	
963	0.979309	0.0242615	
964	0.975037	0.025177	
965	0.970154	0.0273132	
966	0.967102	0.0274658	
967	0.961914	0.0268555	
968	0.957642	0.0270081	
969	0.950317	0.0289917	
970	0.94696	0.0294495	
971	0.943604	0.0294495	
972	0.937805	0.0292969	
973	0.933838	0.0340271	
974	0.930176	0.0366211	
975	0.925903	0.0358582	
976	0.921326	0.0363159	
977	0.916443	0.0366211	
978	0.911255	0.0364685	
979	0.909424	0.0366211	
980	0.905762	0.0375366	
981	0.901794	0.0387573	
982	0.896606	0.0393677	
983	0.89386	0.0372314	
984	0.886841	0.0354004	
985	0.883789	0.0364685	
986	0.880432	0.03479	
987	0.87677	0.0335693	
988	0.871582	0.0335693	
989	0.869751	0.0343323	
990	0.866394	0.0323486	
991	0.862122	0.0320435	
992	0.856628	0.0346375	
993	0.855103	0.0398254	
994	0.847168	0.0460815	
995	0.845032	0.0527954	
996	0.840149	0.0614929	
997	0.837402	0.0671387	
998	0.83252	0.0653076	
999	0.828247	0.0653076	
1000	0.821228	0.0665283	
1001	0.817261	0.0698853	
1002	0.815125	0.0704956	
1003	0.808716	0.0715637	
1004	0.805969	0.0735474	
1005	0.800781	0.0756836	
1006	0.796204	0.0772095	
1007	0.793152	0.0778198	
1008	0.787964	0.0779724	
1009	0.784302	0.0764465	
1010	0.779114	0.0758362	
1011	0.776672	0.0747681	
1012	0.770874	0.0746155	
1013	0.766602	0.0753784	
1014	0.761719	0.0735474	
1015	0.757446	0.0733948	
1016	0.753479	0.0756836	
1017	0.749207	0.0794983	
1018	0.744629	0.0831604	
1019	0.741272	0.0834656	
1020	0.739136	0.0811768	
1021	0.734558	0.0801086	
1022	0.730591	0.0811768	
1023	0.727539	0.0810242	
1024	0.722656	0.0765991	
1025	0.717773	0.0604248	
1026	0.713501	0.0450134	
1027	0.709229	0.0419617	
1028	0.70343	0.0463867	
1029	0.699463	0.052948	
1030	0.695801	0.0588989	
1031	0.690308	0.0616455	
1032	0.68573	0.065918	
1033	0.680542	0.068512	
1034	0.67627	0.0656128	
1035	0.668945	0.0637817	
1036	0.665283	0.0656128	
1037	0.65979	0.0709534	
1038	0.653687	0.0747681	
1039	0.646973	0.0746155	
1040	0.641479	0.0730896	
1041	0.638428	0.0712585	
1042	0.630798	0.0715637	
1043	0.62439	0.0756836	
1044	0.620117	0.0813293	
1045	0.612793	0.085144	
1046	0.610352	0.0836182	
1047	0.605469	0.0852966	
1048	0.598145	0.0880432	
1049	0.592651	0.0915527	
1050	0.589905	0.0968933	
1051	0.583496	0.0976563	
1052	0.578003	0.0970459	
1053	0.57312	0.0968933	
1054	0.567017	0.0996399	
1055	0.560913	0.101929	
1056	0.557861	0.100555	
1057	0.553589	0.100403	
1058	0.54718	0.0990295	
1059	0.541077	0.100098	
1060	0.535889	0.0999451	
1061	0.531006	0.0982666	
1062	0.527649	0.0991821	
1063	0.521545	0.104828	
1064	0.516663	0.107727	
1065	0.51239	0.105591	
1066	0.506897	0.102692	
1067	0.502625	0.10025	
1068	0.496521	0.0999451	
1069	0.491943	0.0987244	
1070	0.489502	0.100861	
1071	0.484314	0.101929	
1072	0.482178	0.0996399	
1073	0.475159	0.0973511	
1074	0.474243	0.0953674	
1075	0.470581	0.0933838	
1076	0.466003	0.0906372	
1077	0.462646	0.0894165	
1078	0.458069	0.0889587	
1079	0.455017	0.0881958	
1080	0.455017	0.087738	
1081	0.45105	0.0866699	
1082	0.447998	0.0854492	
1083	0.444641	0.085144	
1084	0.442505	0.0839233	
1085	0.440979	0.085144	
1086	0.440369	0.0828552	
1087	0.437622	0.0779724	
1088	0.436096	0.0752258	
1089	0.435181	0.0756836	
1090	0.434875	0.0737	
1091	0.435791	0.0732422	
1092	0.434875	0.0749207	
1093	0.438843	0.0756836	
1094	0.440369	0.0746155	
1095	0.441895	0.0724792	
1096	0.444641	0.0691223	
1097	0.448608	0.0674438	
1098	0.45166	0.0650024	
1099	0.454712	0.063324	
1100	0.458984	0.0628662	
1101	0.463867	0.0611877	
1102	0.468445	0.0587463	
1103	0.474548	0.0576782	
1104	0.481262	0.055542	
1105	0.489502	0.0527954	
1106	0.4953	0.0506592	
1107	0.503845	0.0488281	
1108	0.513916	0.0473022	
1109	0.523376	0.045166	
1110	0.533142	0.043335	
1111	0.543213	0.040741	
1112	0.554504	0.0364685	
1113	0.567017	0.0326538	
1114	0.577698	0.0306702	
1115	0.591431	0.0299072	
1116	0.606689	0.0263977	
1117	0.619202	0.0224304	
1118	0.631104	0.0201416	
1119	0.645447	0.0198364	
1120	0.65979	0.0195313	
1121	0.67627	0.0196838	
1122	0.691528	0.0167847	
1123	0.706482	0.01297	
1124	0.72113	0.00976563	
1125	0.740051	0.00747681	
1126	0.757751	0.00564575	
1127	0.7724	0.00457764	
1128	0.788269	0.00473022	
1129	0.808411	0.00473022	
1130	0.827026	0.00411987	
1131	0.843506	0.00167847	
1132	0.861511	-0.0012207	
1133	0.880432	-0.00198364	
1134	0.896606	-0.00244141	
1135	0.916138	-0.00137329	
1136	0.935669	-0.00442505	
1137	0.954895	-0.00686646	
1138	0.975037	-0.00900269	
1139	0.994873	-0.00946045	
1140	1.01471	-0.0102234	
1141	1.03363	-0.0100708	
1142	1.05316	-0.00961304	
1143	1.073	-0.0102234	
1144	1.09314	-0.0102234	
1145	1.11176	-0.0126648	
1146	1.12976	-0.0172424	
1147	1.15082	-0.0201416	
1148	1.17065	-0.0216675	
1149	1.1908	-0.0201416	
1150	1.20605	-0.0198364	
1151	1.22467	-0.0201416	
1152	1.2442	-0.0224304	
1153	1.26404	-0.0224304	
1154	1.27991	-0.0183105	
1155	1.29852	-0.0154114	
1156	1.31561	-0.0172424	
1157	1.33453	-0.0201416	
1158	1.35193	-0.0247192	
1159	1.36963	-0.0267029	
1160	1.38641	-0.0263977	
1161	1.40594	-0.0238037	
1162	1.4212	-0.0227356	
1163	1.4389	-0.0239563	
1164	1.45569	-0.0253296	
1165	1.47186	-0.0296021	
1166	1.48865	-0.0318909	
1167	1.50452	-0.0315857	
1168	1.52161	-0.0292969	
1169	1.53839	-0.0268555	
1170	1.55365	-0.0262451	
1171	1.57288	-0.0244141	
1172	1.58752	-0.025177	
1173	1.60248	-0.0268555	
1174	1.61957	-0.0265503	
1175	1.63422	-0.0262451	
1176	1.64917	-0.0245667	
1177	1.66412	-0.0263977	
1178	1.67847	-0.0273132	
1179	1.69373	-0.0267029	
1180	1.70837	-0.0244141	
1181	1.72028	-0.0219727	
1182	1.73279	-0.0222778	
1183	1.74713	-0.0213623	
1184	1.75934	-0.0215149	
1185	1.77277	-0.0236511	
1186	1.78406	-0.0254822	
1187	1.79626	-0.0236511	
1188	1.80817	-0.0213623	
1189	1.82098	-0.0195313	
1190	1.82983	-0.0195313	
1191	1.8399	-0.0198364	
1192	1.84723	-0.0178528	
1193	1.85547	-0.0178528	
1194	1.86646	-0.018158	
1195	1.87347	-0.0187683	
1196	1.87836	-0.0161743	
1197	1.88568	-0.0146484	
1198	1.89301	-0.0138855	
1199	1.8988	-0.012207	
1200	1.90491	-0.012207	
1201	1.91315	-0.0120544	
1202	1.91833	-0.0146484	
1203	1.92291	-0.0177002	
1204	1.92932	-0.0212097	
1205	1.93298	-0.0218201	
1206	1.93756	-0.0212097	
1207	1.94244	-0.0170898	
1208	1.9455	-0.0126648	
1209	1.95007	-0.0120544	
1210	1.95251	-0.0123596	
1211	1.95679	-0.012207	
1212	1.95801	-0.010376	
1213	1.95984	-0.00961304	
1214	1.96289	-0.00793457	
1215	1.96533	-0.00564575	
1216	1.96777	-0.0050354	
1217	1.96777	-0.00488281	
1218	1.96777	-0.00305176	
1219	1.9696	-0.000610352	
1220	1.97266	0.00167847	
1221	1.97266	0	
1222	1.97266	-0.00198364	
1223	1.97266	-0.00442505	
1224	1.97266	-0.00473022	
1225	1.97266	-0.00427246	
1226	1.97449	-0.00274658	
1227	1.97388	-0.00183105	
1228	1.97296	0.000762939	
1229	1.97449	0.00152588	
1230	1.9754	-0.000610352	
1231	1.97266	-0.00305176	
1232	1.97266	-0.00289917	
1233	1.97235	-0.000457764	
1234	1.97052	0	
1235	1.96838	0.000457764	
1236	1.96686	0.00289917	
1237	1.96564	0.00442505	
1238	1.9632	0.00488281	
1239	1.9632	0.00305176	
1240	1.95892	0.00259399	
1241	1.95831	0.000457764	
1242	1.95587	0	
1243	1.95404	0.00167847	
1244	1.94916	0.00320435	
1245	1.94641	0.00457764	
1246	1.94336	0.00488281	
1247	1.94	0.00350952	
1248	1.93573	0.00396729	
1249	1.9342	0.0038147	
1250	1.92963	0.00305176	
1251	1.92719	0.00259399	
1252	1.92261	0.00442505	
1253	1.91925	0.00579834	
1254	1.91498	0.00732422	
1255	1.9101	0.00732422	
1256	1.90491	0.00457764	
1257	1.90308	0.000915527	
1258	1.89941	0.000152588	
1259	1.89484	0	
1260	1.88995	0.00289917	
1261	1.88599	0.00656128	
1262	1.88293	0.00732422	
1263	1.87561	0.00732422	
1264	1.87256	0.00488281	
1265	1.86829	-0.0012207	
1266	1.86279	-0.00427246	
1267	1.85883	-0.00228882	
1268	1.85394	0.000610352	
1269	1.84937	0.00244141	
1270	1.84204	0.00427246	
1271	1.83655	0.00442505	
1272	1.83319	0.00442505	
1273	1.82892	0.0050354	
1274	1.82281	0.00488281	
1275	1.81519	0.00488281	
1276	1.81183	0.00564575	
1277	1.80481	0.00961304	
1278	1.80145	0.0128174	
1279	1.79535	0.0146484	
1280	1.78986	0.0170898	
1281	1.78436	0.0212097	
1282	1.77795	0.0221252	
1283	1.77307	0.0221252	
1284	1.76422	0.0221252	
1285	1.75842	0.0221252	
1286	1.75323	0.0216675	
1287	1.74652	0.0178528	
1288	1.73859	0.0154114	
1289	1.73401	0.0146484	
1290	1.72729	0.0154114	
1291	1.71997	0.0198364	
1292	1.71234	0.0221252	
1293	1.70685	0.0201416	
1294	1.698	0.0190735	
1295	1.6922	0.017395	
1296	1.68488	0.0172424	
1297	1.67786	0.0170898	
1298	1.67023	0.0154114	
1299	1.66382	0.0166321	
1300	1.65771	0.0158691	
1301	1.65039	0.0170898	
1302	1.64398	0.0172424	
1303	1.63788	0.0172424	
1304	1.63116	0.0172424	
1305	1.62445	0.0152588	
1306	1.61499	0.0144958	
1307	1.60858	0.012207	
1308	1.60126	0.0100708	
1309	1.59515	0.00778198	
1310	1.58508	0.00762939	
1311	1.57959	0.00732422	
1312	1.57135	0.00946045	
1313	1.56464	0.0088501	
1314	1.55823	0.00762939	
1315	1.55121	0.00549316	
1316	1.54114	0.00228882	
1317	1.5332	0.000152588	
1318	1.52618	-0.00183105	
1319	1.51642	-0.00167847	
1320	1.51062	0.000762939	
1321	1.50177	0.00289917	
1322	1.49445	0.00473022	
1323	1.48682	0.00686646	
1324	1.47705	0.00915527	
1325	1.46912	0.00991821	
1326	1.46301	0.00900269	
1327	1.45752	0.00747681	
1328	1.44806	0.00732422	
1329	1.44226	0.00473022	
1330	1.43494	0.000610352	
1331	1.42822	0.00274658	
1332	1.41998	0.00808716	
1333	1.4151	0.012207	
1334	1.40869	0.012207	
1335	1.40289	0.0126648	
1336	1.39893	0.012207	
1337	1.38885	0.0112915	
1338	1.38733	0.00991821	
1339	1.3797	0.0100708	
1340	1.3736	0.00793457	
1341	1.36871	0.00549316	
1342	1.36383	0.00305176	
1343	1.35712	0.00152588	
1344	1.35193	0.00228882	
1345	1.34644	0.00228882	
1346	1.33972	0.000762939	
1347	1.33423	0.00198364	
1348	1.32965	0.00411987	
1349	1.32111	0.00473022	
1350	1.31744	0.00289917	
1351	1.31226	0.00244141	
1352	1.30768	0.00259399	
1353	1.30157	0.00442505	
1354	1.29608	0.00518799	
1355	1.29059	0.00442505	
1356	1.28571	0.00534058	
1357	1.28082	0.00534058	
1358	1.27716	0.00747681	
1359	1.27197	0.0115967	
1360	1.26617	0.0143433	
1361	1.26129	0.0166321	
1362	1.25702	0.0190735	
1363	1.25183	0.0202942	
1364	1.24603	0.0221252	
1365	1.24359	0.0204468	
1366	1.23932	0.0196838	
1367	1.23444	0.0196838	
1368	1.23291	0.0222778	
1369	1.22955	0.0265503	
1370	1.22498	0.0270081	
1371	1.22223	0.0286865	
1372	1.21887	0.0312805	
1373	1.21857	0.0323486	
1374	1.2146	0.0350952	
1375	1.21338	0.0393677	
1376	1.20972	0.0411987	
1377	1.20911	0.0415039	
1378	1.20453	0.0415039	
1379	1.20209	0.0384521	
1380	1.19904	0.0335693	
1381	1.19965	0.032196	
1382	1.19904	0.0309753	
1383	1.19904	0.0286865	
1384	1.19598	0.0263977	
1385	1.19415	0.0248718	
1386	1.19202	0.0244141	
1387	1.19019	0.0245667	
1388	1.18927	0.0236511	
1389	1.18927	0.0219727	
1390	1.18805	0.0222778	
1391	1.185	0.0216675	
1392	1.18225	0.0212097	
1393	1.18042	0.0202942	
1394	1.17981	0.0221252	
1395	1.1795	0.0219727	
1396	1.17493	0.0228882	
1397	1.17462	0.0262451	
1398	1.17462	0.0289917	
1399	1.1731	0.0265503	
1400	1.16913	0.0241089	
1401	1.16974	0.0195313	
1402	1.16882	0.015564	
1403	1.16974	0.014801	
1404	1.16791	0.0140381	
1405	1.16455	0.010376	
1406	1.16486	0.00808716	
1407	1.16516	0.00411987	
1408	1.16425	0.00305176	
1409	1.16486	0.00167847	
1410	1.16486	0.00106812	
1411	1.16272	0.00228882	
1412	1.16516	0.00259399	
1413	1.16516	0.000610352	
1414	1.16516	-0.000152588	
1415	1.16486	0.000762939	
1416	1.16089	0.00320435	
1417	1.16028	0.00564575	
1418	1.15936	0.00747681	
1419	1.15997	0.00396729	
1420	1.16028	-0.00488281	
1421	1.15967	-0.0102234	
1422	1.15784	-0.012207	
1423	1.15753	-0.0125122	
1424	1.1554	-0.0132751	
1425	1.15479	-0.0143433	
1426	1.15479	-0.0164795	
1427	1.15448	-0.0190735	
1428	1.15509	-0.0196838	
1429	1.1554	-0.0215149	
1430	1.15479	-0.0213623	
1431	1.15509	-0.0177002	
1432	1.15448	-0.0175476	
1433	1.15479	-0.0170898	
1434	1.15417	-0.0177002	
1435	1.1554	-0.0193787	
1436	1.15509	-0.0213623	
1437	1.15417	-0.020752	
1438	1.15509	-0.0189209	
1439	1.1554	-0.0172424	
1440	1.15479	-0.0170898	
1441	1.1554	-0.0180054	
1442	1.15509	-0.0193787	
1443	1.15479	-0.0196838	
1444	1.15448	-0.0193787	
1445	1.15295	-0.0157166	
1446	1.15265	-0.0123596	
1447	1.15051	-0.0146484	
1448	1.1499	-0.0178528	
1449	1.1499	-0.0190735	
1450	1.1499	-0.0195313	
1451	1.1499	-0.017395	
1452	1.15051	-0.0143433	
1453	1.14594	-0.0125122	
1454	1.14502	-0.0119019	
1455	1.1499	-0.0120544	
1456	1.14594	-0.012207	
1457	1.14563	-0.0120544	
1458	1.14532	-0.0131226	
1459	1.14532	-0.0126648	
1460	1.14502	-0.012207	
1461	1.14105	-0.012207	
1462	1.14044	-0.00946045	
1463	1.14044	-0.00915527	
1464	1.138	-0.00961304	
1465	1.1377	-0.0102234	
1466	1.13678	-0.0114441	
1467	1.13403	-0.0128174	
1468	1.13037	-0.0144958	
1469	1.13007	-0.0128174	
1470	1.12885	-0.0102234	
1471	1.12762	-0.00961304	
1472	1.1261	-0.00976563	
1473	1.12549	-0.00976563	
1474	1.12152	-0.00961304	
1475	1.11877	-0.00976563	
1476	1.11633	-0.0088501	
1477	1.11572	-0.00595093	
1478	1.11145	-0.00183105	
1479	1.11145	0.00167847	
1480	1.10687	0.0050354	
1481	1.10168	0.00976563	
1482	1.10168	0.017395	
1483	1.09711	0.0263977	
1484	1.09619	0.0338745	
1485	1.09467	0.0395203	
1486	1.08765	0.0440979	
1487	1.08673	0.0508118	
1488	1.08521	0.0561523	
1489	1.08215	0.0630188	
1490	1.07788	0.0675964	
1491	1.07513	0.071106	
1492	1.07208	0.0758362	
1493	1.07025	0.0831604	
1494	1.06689	0.0950623	
1495	1.06293	0.110168	
1496	1.06018	0.127563	
1497	1.05499	0.144196	
1498	1.05225	0.161285	
1499	1.05072	0.177307	
1500	1.04797	0.189514	
1501	1.04279	0.193939	
1502	1.03882	0.195618	
1503	1.03577	0.200195	
1504	1.03271	0.207672	
1505	1.02692	0.209503	
1506	1.02325	0.206909	
1507	1.01868	0.204468	
1508	1.01593	0.200348	
1509	1.01135	0.193481	
1510	1.008	0.186157	
1511	1.00403	0.176086	
1512	0.999146	0.161133	
1513	0.993652	0.146179	
1514	0.991516	0.128632	
1515	0.986633	0.10849	
1516	0.983582	0.0793457	
1517	0.979614	0.0453186	
1518	0.97229	0.00671387	
1519	0.968933	-0.032196	
1520	0.962524	-0.0665283	
1521	0.959167	-0.0907898	
1522	0.9552	-0.110016	
1523	0.950012	-0.123749	
1524	0.943298	-0.129852	
1525	0.939331	-0.134125	
1526	0.935974	-0.134583	
1527	0.930481	-0.134888	
1528	0.925903	-0.132446	
1529	0.920715	-0.131989	
1530	0.916138	-0.133209	
1531	0.91095	-0.139618	
1532	0.906372	-0.150299	
1533	0.903625	-0.15976	
1534	0.898743	-0.171661	
1535	0.89386	-0.189362	
1536	0.88623	-0.207214	
1537	0.884399	-0.214691	
1538	0.879822	-0.211334	
1539	0.874329	-0.197754	
1540	0.871582	-0.184021	
1541	0.864868	-0.169983	
1542	0.863647	-0.148926	
1543	0.857239	-0.121613	
1544	0.854492	-0.0942993	
1545	0.849304	-0.0679016	
1546	0.845032	-0.045929	
1547	0.84137	-0.0286865	
1548	0.837402	-0.0189209	
1549	0.83252	-0.0100708	
1550	0.830078	-0.0062561	
1551	0.825195	-0.00534058	
1552	0.822449	-0.00305176	
1553	0.817871	-0.00274658	
1554	0.812683	-0.00198364	
1555	0.810242	-0.000305176	
1556	0.805054	0	
1557	0.800476	0	
1558	0.797729	-0.000152588	
1559	0.791321	0.000152588	
1560	0.787354	0.000152588	
1561	0.785217	-0.00198364	
1562	0.778503	-0.00228882	
1563	0.775757	-0.00396729	
1564	0.771484	-0.00579834	
1565	0.767822	-0.00701904	
1566	0.766602	-0.00717163	
1567	0.761414	-0.00640869	
1568	0.756226	-0.00335693	
1569	0.754089	-0.00244141	
1570	0.749207	-0.00228882	
1571	0.744019	-0.00228882	
1572	0.741272	-0.00259399	
1573	0.738831	-0.000457764	
1574	0.734558	0.000305176	
1575	0.72998	0.00259399	
1576	0.725098	0.00305176	
1577	0.721741	0.00350952	
1578	0.717773	0.00427246	
1579	0.711975	0.00244141	
1580	0.709534	0.00320435	
1581	0.705261	0.00411987	
1582	0.700684	0.00259399	
1583	0.697632	0.00244141	
1584	0.690308	0.00244141	
1585	0.687561	0.00167847	
1586	0.682983	0.000152588	
1587	0.680237	-0.00198364	
1588	0.673828	-0.00152588	
1589	0.670776	-0.00183105	
1590	0.665283	-0.00305176	
1591	0.662842	-0.00457764	
1592	0.656433	-0.00427246	
1593	0.653076	-0.00259399	
1594	0.646973	-0.00244141	
1595	0.643311	-0.00442505	
1596	0.639648	-0.00488281	
1597	0.635986	-0.00396729	
1598	0.630493	-0.000305176	
1599	0.624084	-0.00167847	
1600	0.621338	-0.00198364	
1601	0.617065	-0.000305176	
1602	0.612793	-0.000762939	
1603	0.605774	-0.00228882	
1604	0.600586	-0.00213623	
1605	0.595093	-0.00457764	
1606	0.589294	-0.00274658	
1607	0.587463	-0.00244141	
1608	0.581055	-0.00213623	
1609	0.577393	-0.000610352	
1610	0.573425	-0.000762939	
1611	0.568237	-0.00305176	
1612	0.561523	-0.00549316	
1613	0.557556	-0.00717163	
1614	0.553284	-0.00671387	
1615	0.548401	-0.00228882	
1616	0.544128	0.00274658	
1617	0.540771	0.00549316	
1618	0.537109	0.00747681	
1619	0.533142	0.00930786	
1620	0.528564	0.0088501	
1621	0.524597	0.00946045	
1622	0.518799	0.0128174	
1623	0.513916	0.0154114	
1624	0.51178	0.0169373	
1625	0.506897	0.0186157	
1626	0.502319	0.0172424	
1627	0.498657	0.0172424	
1628	0.492249	0.0170898	
1629	0.489197	0.0169373	
1630	0.484924	0.0180054	
1631	0.480042	0.0190735	
1632	0.473022	0.0224304	
1633	0.469666	0.0257874	
1634	0.465698	0.0300598	
1635	0.460205	0.0315857	
1636	0.455627	0.0314331	
1637	0.45105	0.0317383	
1638	0.446167	0.0318909	
1639	0.440979	0.0325012	
1640	0.436096	0.0318909	
1641	0.430908	0.0317383	
1642	0.424194	0.032959	
1643	0.418091	0.0337219	
1644	0.413818	0.0343323	
1645	0.40863	0.032196	
1646	0.405579	0.0318909	
1647	0.400391	0.032196	
1648	0.395813	0.0323486	
1649	0.392456	0.0326538	
1650	0.387268	0.0318909	
1651	0.382385	0.0326538	
1652	0.377197	0.0311279	
1653	0.372314	0.0302124	
1654	0.368958	0.0323486	
1655	0.367432	0.0344849	
1656	0.362854	0.0341797	
1657	0.357971	0.0360107	
1658	0.352783	0.0386047	
1659	0.350037	0.0384521	
1660	0.344849	0.0358582	
1661	0.342407	0.0350952	
1662	0.339966	0.0367737	
1663	0.335083	0.0364685	
1664	0.332031	0.037384	
1665	0.328064	0.0395203	
1666	0.322876	0.0408936	
1667	0.318298	0.0395203	
1668	0.315552	0.0384521	
1669	0.310974	0.0387573	
1670	0.307922	0.0408936	
1671	0.302124	0.0415039	
1672	0.296631	0.0422668	
1673	0.293274	0.0444031	
1674	0.289307	0.0480652	
1675	0.28656	0.0512695	
1676	0.279846	0.0543213	
1677	0.276184	0.0538635	
1678	0.271606	0.0535583	
1679	0.267334	0.0518799	
1680	0.260925	0.0518799	
1681	0.256958	0.0561523	
1682	0.253906	0.0611877	
1683	0.250549	0.0654602	
1684	0.245056	0.0665283	
1685	0.240479	0.0660706	
1686	0.235596	0.0654602	
1687	0.232544	0.0657654	
1688	0.227661	0.0679016	
1689	0.222778	0.0679016	
1690	0.217896	0.0686646	
1691	0.215149	0.0701904	
1692	0.210266	0.0717163	
1693	0.205994	0.0740051	
1694	0.200806	0.0749207	
1695	0.195923	0.0743103	
1696	0.193481	0.0733948	
1697	0.188599	0.0738525	
1698	0.185242	0.0776672	
1699	0.18158	0.0799561	
1700	0.176086	0.080719	
1701	0.173645	0.0799561	
1702	0.169067	0.0779724	
1703	0.163879	0.0761414	
1704	0.161133	0.0775146	
1705	0.15686	0.0798035	
1706	0.154114	0.0796509	
1707	0.149841	0.0802612	
1708	0.144653	0.0802612	
1709	0.138855	0.0802612	
1710	0.134888	0.0788879	
1711	0.133667	0.0770569	
1712	0.128174	0.0778198	
1713	0.124817	0.0779724	
1714	0.122375	0.0756836	
1715	0.119324	0.0752258	
1716	0.114746	0.0744629	
1717	0.110474	0.0761414	
1718	0.107422	0.0769043	
1719	0.103455	0.0749207	
1720	0.101624	0.0712585	
1721	0.100708	0.0706482	
1722	0.0985718	0.0709534	
1723	0.0973511	0.0700378	
1724	0.0927734	0.068512	
1725	0.0918579	0.0663757	
1726	0.0927734	0.0653076	
1727	0.0927734	0.0613403	
1728	0.0942993	0.0602722	
1729	0.0967407	0.0576782	
1730	0.0970459	0.055542	
1731	0.0994873	0.0520325	
1732	0.101624	0.0514221	
1733	0.103149	0.0494385	
1734	0.106812	0.0465393	
1735	0.111084	0.0463867	
1736	0.116272	0.043335	
1737	0.12085	0.0390625	
1738	0.128174	0.0361633	
1739	0.135498	0.0335693	
1740	0.141907	0.0326538	
1741	0.152893	0.0340271	
1742	0.157471	0.0338745	
1743	0.168457	0.0346375	
1744	0.177002	0.0323486	
1745	0.187988	0.0289917	
1746	0.19928	0.0250244	
1747	0.210571	0.0224304	
1748	0.224609	0.0219727	
1749	0.235596	0.0213623	
1750	0.249329	0.0163269	
1751	0.261536	0.00946045	
1752	0.276794	0.00549316	
1753	0.291443	0.00457764	
1754	0.307617	0.00671387	
1755	0.32196	0.00656128	
1756	0.337219	0.00396729	
1757	0.351257	0.000762939	
1758	0.368042	-0.00167847	
1759	0.383606	-0.00244141	
1760	0.400696	-0.00427246	
1761	0.417175	-0.0062561	
1762	0.436707	-0.00732422	
1763	0.452576	-0.0114441	
1764	0.471191	-0.0144958	
1765	0.490112	-0.0140381	
1766	0.506287	-0.0140381	
1767	0.525513	-0.0154114	
1768	0.544739	-0.0198364	
1769	0.563965	-0.0216675	
1770	0.584412	-0.0228882	
1771	0.601807	-0.0242615	
1772	0.618591	-0.0242615	
1773	0.637512	-0.0244141	
1774	0.657043	-0.0241089	
1775	0.676575	-0.0260925	
1776	0.696411	-0.0260925	
1777	0.713501	-0.0250244	
1778	0.735474	-0.0285339	
1779	0.755005	-0.0302124	
1780	0.775757	-0.0315857	
1781	0.794067	-0.0317383	
1782	0.814209	-0.0326538	
1783	0.834045	-0.0361633	
1784	0.852966	-0.0361633	
1785	0.872803	-0.0363159	
1786	0.892639	-0.0375366	
1787	0.911865	-0.0421143	
1788	0.931702	-0.0437927	
1789	0.951538	-0.0457764	
1790	0.968323	-0.045929	
1791	0.989685	-0.0415039	
1792	1.00769	-0.0390625	
1793	1.02539	-0.0421143	
1794	1.04492	-0.0437927	
1795	1.06415	-0.0419617	
1796	1.08307	-0.0413513	
1797	1.10046	-0.0424194	
1798	1.11755	-0.0462341	
1799	1.13586	-0.0457764	
1800	1.15173	-0.0421143	
1801	1.16913	-0.0398254	
1802	1.18652	-0.0382996	
1803	1.20209	-0.0387573	
1804	1.22101	-0.0398254	
1805	1.23474	-0.0422668	
1806	1.25	-0.0463867	
1807	1.26678	-0.0495911	
1808	1.28021	-0.0489807	
1809	1.29791	-0.0466919	
1810	1.31226	-0.0457764	
1811	1.32416	-0.0440979	
1812	1.33911	-0.0460815	
1813	1.35315	-0.0457764	
1814	1.36627	-0.0431824	
1815	1.38031	-0.0416565	
1816	1.39099	-0.0415039	
1817	1.40472	-0.0415039	
1818	1.41754	-0.039978	
1819	1.43005	-0.0392151	
1820	1.44012	-0.0390625	
1821	1.44958	-0.0366211	
1822	1.45905	-0.0323486	
1823	1.47308	-0.0294495	
1824	1.48438	-0.0312805	
1825	1.49353	-0.0337219	
1826	1.50391	-0.0335693	
1827	1.5094	-0.0308228	
1828	1.51825	-0.0294495	
1829	1.52832	-0.0300598	
1830	1.53595	-0.0325012	
1831	1.54205	-0.0334167	
1832	1.54999	-0.0309753	
1833	1.55792	-0.027771	
1834	1.56342	-0.027771	
1835	1.57166	-0.0302124	
1836	1.57593	-0.0335693	
1837	1.58112	-0.0343323	
1838	1.58569	-0.0331116	
1839	1.58966	-0.0317383	
1840	1.59668	-0.0337219	
1841	1.60004	-0.0360107	
1842	1.60431	-0.0387573	
1843	1.60919	-0.037384	
1844	1.61469	-0.0338745	
1845	1.61591	-0.0318909	
1846	1.61957	-0.0350952	
1847	1.62384	-0.0369263	
1848	1.62476	-0.0352478	
1849	1.62933	-0.0273132	
1850	1.63208	-0.0236511	
1851	1.63483	-0.0221252	
1852	1.63849	-0.0227356	
1853	1.6394	-0.0253296	
1854	1.64398	-0.0263977	
1855	1.64703	-0.0268555	
1856	1.64978	-0.0267029	
1857	1.64948	-0.0271606	
1858	1.65375	-0.0260925	
1859	1.65436	-0.0244141	
1860	1.65527	-0.0250244	
1861	1.65436	-0.0256348	
1862	1.65466	-0.0248718	
1863	1.65436	-0.0244141	
1864	1.65863	-0.0242615	
1865	1.65924	-0.0241089	
1866	1.6568	-0.0244141	
1867	1.65497	-0.0244141	
1868	1.65619	-0.022583	
1869	1.65863	-0.0218201	
1870	1.6571	-0.0228882	
1871	1.65497	-0.0244141	
1872	1.65314	-0.0256348	
1873	1.65192	-0.0248718	
1874	1.64917	-0.0219727	
1875	1.64764	-0.0216675	
1876	1.6452	-0.0212097	
1877	1.64032	-0.0198364	
1878	1.6394	-0.0198364	
1879	1.63605	-0.0202942	
1880	1.63513	-0.0222778	
1881	1.63086	-0.0221252	
1882	1.62811	-0.0218201	
1883	1.62262	-0.0219727	
1884	1.62048	-0.0221252	
1885	1.61835	-0.0248718	
1886	1.61346	-0.0274658	
1887	1.61072	-0.0291443	
1888	1.60583	-0.0274658	
1889	1.60309	-0.0267029	
1890	1.60065	-0.0268555	
1891	1.59698	-0.0268555	
1892	1.5921	-0.0268555	
1893	1.58844	-0.0276184	
1894	1.5863	-0.0274658	
1895	1.58203	-0.0282288	
1896	1.57898	-0.0267029	
1897	1.57166	-0.0260925	
1898	1.5686	-0.0265503	
1899	1.56433	-0.0267029	
1900	1.56189	-0.0257874	
1901	1.55731	-0.0260925	
1902	1.55212	-0.0241089	
1903	1.54999	-0.0242615	
1904	1.5448	-0.0262451	
1905	1.54022	-0.027771	
1906	1.53534	-0.027771	
1907	1.53046	-0.0292969	
1908	1.52527	-0.0328064	
1909	1.52039	-0.0317383	
1910	1.5152	-0.0312805	
1911	1.5097	-0.0296021	
1912	1.50757	-0.0288391	
1913	1.5036	-0.0267029	
1914	1.49628	-0.0257874	
1915	1.49139	-0.0244141	
1916	1.48621	-0.0224304	
1917	1.48102	-0.0248718	
1918	1.47675	-0.0291443	
1919	1.47125	-0.0340271	
1920	1.46667	-0.0334167	
1921	1.45905	-0.0299072	
1922	1.4566	-0.0291443	
1923	1.44745	-0.0311279	
1924	1.44379	-0.0315857	
1925	1.43707	-0.0306702	
1926	1.4325	-0.0317383	
1927	1.42456	-0.0308228	
1928	1.42059	-0.0294495	
1929	1.4151	-0.0286865	
1930	1.40778	-0.0250244	
1931	1.40289	-0.0245667	
1932	1.39587	-0.025177	
1933	1.38885	-0.0267029	
1934	1.38367	-0.0262451	
1935	1.37756	-0.0244141	
1936	1.37085	-0.025177	
1937	1.36383	-0.0267029	
1938	1.3562	-0.0286865	
1939	1.35193	-0.0292969	
1940	1.34644	-0.0306702	
1941	1.34003	-0.0312805	
1942	1.33392	-0.032196	
1943	1.32813	-0.0317383	
1944	1.31989	-0.0318909	
1945	1.31439	-0.0300598	
1946	1.30768	-0.030365	
1947	1.3028	-0.0317383	
1948	1.29669	-0.032959	
1949	1.29089	-0.0338745	
1950	1.28601	-0.0335693	
1951	1.28082	-0.0318909	
1952	1.27502	-0.0297546	
1953	1.26892	-0.0291443	
1954	1.2619	-0.0311279	
1955	1.25824	-0.0325012	
1956	1.25183	-0.0320435	
1957	1.24451	-0.0296021	
1958	1.24146	-0.0291443	
1959	1.23474	-0.0291443	
1960	1.22894	-0.0289917	
1961	1.22223	-0.0291443	
1962	1.21735	-0.0292969	
1963	1.21216	-0.0292969	
1964	1.20667	-0.0292969	
1965	1.20026	-0.0311279	
1966	1.1969	-0.0317383	
1967	1.19019	-0.0318909	
1968	1.18378	-0.0317383	
1969	1.17798	-0.0317383	
1970	1.17249	-0.0317383	
1971	1.16791	-0.0317383	
1972	1.16058	-0.0299072	
1973	1.1554	-0.027771	
1974	1.14929	-0.0289917	
1975	1.14349	-0.030365	
1976	1.13861	-0.0299072	
1977	1.12885	-0.0271606	
1978	1.12366	-0.0268555	
1979	1.11908	-0.0268555	
1980	1.11481	-0.0267029	
1981	1.10657	-0.025177	
1982	1.10229	-0.022583	
1983	1.09528	-0.0227356	
1984	1.09161	-0.0244141	
1985	1.08551	-0.0254822	
1986	1.08032	-0.0241089	
1987	1.07239	-0.0241089	
1988	1.06781	-0.0242615	
1989	1.06262	-0.0244141	
1990	1.05774	-0.0239563	
1991	1.05255	-0.0224304	
1992	1.04797	-0.0212097	
1993	1.0434	-0.0209045	
1994	1.0379	-0.019989	
1995	1.03577	-0.0192261	
1996	1.03088	-0.0169373	
1997	1.02753	-0.0114441	
1998	1.026	-0.00778198	
1999	1.02142	-0.00793457	
2000	1.01654	-0.010376	
2001	1.01318	-0.014801	
2002	1.00922	-0.0187683	
2003	1.00586	-0.0212097	
2004	1.00342	-0.0219727	
2005	1.00128	-0.0193787	
2006	0.998535	-0.012207	
2007	0.996094	-0.00991821	
2008	0.993958	-0.0105286	
2009	0.98938	-0.01297	
2010	0.986633	-0.0144958	
2011	0.983887	-0.014801	
2012	0.98175	-0.0158691	
2013	0.978699	-0.0149536	
2014	0.976563	-0.0126648	
2015	0.974121	-0.0102234	
2016	0.97168	-0.00961304	
2017	0.968933	-0.00778198	
2018	0.968628	-0.00457764	
2019	0.966492	-0.00259399	
2020	0.96405	-0.000457764	
2021	0.961609	0.000915527	
2022	0.962524	0.00167847	
2023	0.960388	0.000152588	
2024	0.959167	-0.000915527	
2025	0.959167	-0.000305176	
2026	0.957031	0.00366211	
2027	0.9552	0.0102234	
2028	0.953979	0.0140381	
2029	0.953674	0.0149536	
2030	0.954285	0.0138855	
2031	0.953979	0.0157166	
2032	0.950012	0.0172424	
2033	0.949402	0.0190735	
2034	0.949402	0.0204468	
2035	0.949402	0.0222778	
2036	0.949402	0.0213623	
2037	0.948792	0.0196838	
2038	0.949097	0.0177002	
2039	0.949097	0.0151062	
2040	0.949402	0.0138855	
2041	0.949402	0.0115967	
2042	0.94696	0.00961304	
2043	0.947876	0.00564575	
2044	0.947266	0.00518799	
2045	0.948792	0.00289917	
2046	0.945435	0.00183105	
2047	0.943909	0.000152588	
2048	0.944519	-0.00183105	
2049	0.941772	-0.00396729	
2050	0.942383	-0.0038147	
2051	0.939331	-0.00183105	
2052	0.939636	0.000457764	
2053	0.939331	0.00244141	
2054	0.939331	0.00167847	
2055	0.939636	0.0012207	
2056	0.9375	0.0012207	
2057	0.936584	0.00305176	
2058	0.935364	0.00411987	
2059	0.934448	0.00152588	
2060	0.935364	-0.00244141	
2061	0.934448	-0.00564575	
2062	0.935059	-0.00534058	
2063	0.934448	-0.00289917	
2064	0.932007	-0.00152588	
2065	0.930481	-0.00198364	
2066	0.929565	-0.00488281	
2067	0.929565	-0.00793457	
2068	0.930481	-0.0106812	
2069	0.930176	-0.0128174	
2070	0.927734	-0.0144958	
2071	0.92804	-0.0166321	
2072	0.925903	-0.0167847	
2073	0.925293	-0.0180054	
2074	0.924377	-0.0187683	
2075	0.924683	-0.0170898	
2076	0.924683	-0.0172424	
2077	0.924683	-0.0178528	
2078	0.924988	-0.0201416	
2079	0.924683	-0.0239563	
2080	0.923157	-0.0262451	
2081	0.923157	-0.0274658	
2082	0.920105	-0.0297546	
2083	0.920715	-0.0318909	
2084	0.9198	-0.0344849	
2085	0.920105	-0.0384521	
2086	0.92041	-0.0392151	
2087	0.92041	-0.0408936	
2088	0.9198	-0.0415039	
2089	0.916443	-0.0415039	
2090	0.917358	-0.0387573	
2091	0.915222	-0.0379944	
2092	0.914612	-0.0386047	
2093	0.915222	-0.0392151	
2094	0.915833	-0.0364685	
2095	0.912476	-0.0340271	
2096	0.910339	-0.0338745	
2097	0.910034	-0.0363159	
2098	0.910339	-0.0376892	
2099	0.906372	-0.038147	
2100	0.905762	-0.0367737	
2101	0.905762	-0.0364685	
2102	0.904236	-0.0367737	
2103	0.901184	-0.0340271	
2104	0.899048	-0.0320435	
2105	0.895691	-0.0323486	
2106	0.895386	-0.0360107	
2107	0.891418	-0.0367737	
2108	0.890808	-0.03479	
2109	0.890808	-0.0361633	
2110	0.886841	-0.0364685	
2111	0.88562	-0.0375366	
2112	0.881348	-0.0390625	
2113	0.882874	-0.0384521	
2114	0.879211	-0.0341797	
2115	0.875549	-0.0291443	
2116	0.874023	-0.0268555	
2117	0.869751	-0.0288391	
2118	0.86853	-0.0311279	
2119	0.866394	-0.0318909	
2120	0.864563	-0.0308228	
2121	0.860901	-0.0312805	
2122	0.856934	-0.0302124	
2123	0.854492	-0.0273132	
2124	0.852966	-0.0268555	
2125	0.85144	-0.0288391	
2126	0.847473	-0.0296021	
2127	0.844421	-0.0292969	
2128	0.84137	-0.0323486	
2129	0.837402	-0.0346375	
2130	0.836792	-0.0367737	
2131	0.832825	-0.0349426	
2132	0.827637	-0.0314331	
2133	0.824585	-0.0274658	
2134	0.821838	-0.0250244	
2135	0.820313	-0.0236511	
2136	0.815125	-0.0219727	
2137	0.809937	-0.0212097	
2138	0.807495	-0.0187683	
2139	0.805054	-0.012207	
2140	0.800781	-0.00442505	
2141	0.797729	0.00610352	
2142	0.793457	0.0178528	
2143	0.788574	0.027771	
2144	0.785828	0.0335693	
2145	0.783081	0.038147	
2146	0.778198	0.0416565	
2147	0.774536	0.0463867	
2148	0.773315	0.0511169	
2149	0.769043	0.0587463	
2150	0.765991	0.0666809	
2151	0.759583	0.0767517	
2152	0.756836	0.0886536	
2153	0.751953	0.103149	
2154	0.748901	0.117493	
2155	0.746155	0.132599	
2156	0.741272	0.144653	
2157	0.739136	0.152588	
2158	0.733948	0.160828	
2159	0.731506	0.164337	
2160	0.72998	0.166779	
2161	0.725098	0.16861	
2162	0.721741	0.167999	
2163	0.718689	0.163574	
2164	0.715027	0.161591	
2165	0.71167	0.158691	
2166	0.705261	0.154114	
2167	0.704346	0.149231	
2168	0.702515	0.143738	
2169	0.695801	0.135651	
2170	0.690308	0.119019	
2171	0.688782	0.102234	
2172	0.68512	0.0894165	
2173	0.680237	0.0746155	
2174	0.67627	0.0537109	
2175	0.670471	0.0222778	
2176	0.665283	-0.0152588	
2177	0.661011	-0.0511169	
2178	0.658264	-0.0836182	
2179	0.651245	-0.110931	
2180	0.648193	-0.131073	
2181	0.641479	-0.13916	
2182	0.638123	-0.141754	
2183	0.63385	-0.142059	
2184	0.628662	-0.141296	
2185	0.624084	-0.138855	
2186	0.621338	-0.134583	
2187	0.614929	-0.132904	
2188	0.611572	-0.140076	
2189	0.607605	-0.150757	
2190	0.603027	-0.163422	
2191	0.597839	-0.177307	
2192	0.592651	-0.191345	
2193	0.588074	-0.209045	
2194	0.583496	-0.225677	
2195	0.577698	-0.232086	
2196	0.570679	-0.225525	
2197	0.567627	-0.211639	
2198	0.56488	-0.194702	
2199	0.558167	-0.175018	
2200	0.553589	-0.148468	
2201	0.548706	-0.119019	
2202	0.543518	-0.0933838	
2203	0.540161	-0.0726318	
2204	0.534668	-0.0569153	
2205	0.527039	-0.0453186	
2206	0.523987	-0.0340271	
2207	0.518799	-0.0241089	
2208	0.51239	-0.0177002	
2209	0.505981	-0.017395	
2210	0.501709	-0.0196838	
2211	0.496521	-0.0219727	
2212	0.492249	-0.0219727	
2213	0.484619	-0.0218201	
2214	0.481262	-0.019989	
2215	0.475159	-0.0192261	
2216	0.471802	-0.0193787	
2217	0.465393	-0.0224304	
2218	0.460205	-0.0236511	
2219	0.455627	-0.0233459	
2220	0.45105	-0.022583	
2221	0.443115	-0.022583	
2222	0.438843	-0.0218201	
2223	0.433044	-0.0222778	
2224	0.430298	-0.019989	
2225	0.425415	-0.0186157	
2226	0.418091	-0.0163269	
2227	0.411682	-0.014801	
2228	0.40863	-0.0128174	
2229	0.403748	-0.0128174	
2230	0.39917	-0.0163269	
2231	0.394287	-0.0180054	
2232	0.389404	-0.0193787	
2233	0.384521	-0.0198364	
2234	0.379028	-0.0166321	
2235	0.374756	-0.0149536	
2236	0.369263	-0.01297	
2237	0.364685	-0.0132751	
2238	0.359497	-0.014801	
2239	0.354614	-0.0166321	
2240	0.350037	-0.0167847	
2241	0.345154	-0.0161743	
2242	0.339355	-0.0166321	
2243	0.335388	-0.0169373	
2244	0.332642	-0.0169373	
2245	0.328064	-0.0161743	
2246	0.32074	-0.015564	
2247	0.317688	-0.0167847	
2248	0.313416	-0.0187683	
2249	0.308533	-0.0195313	
2250	0.30426	-0.0189209	
2251	0.299072	-0.0189209	
2252	0.294189	-0.0193787	
2253	0.289307	-0.0198364	
2254	0.284119	-0.018158	
2255	0.279236	-0.0193787	
2256	0.275879	-0.0195313	
2257	0.270996	-0.0198364	
2258	0.264893	-0.0178528	
2259	0.261536	-0.0169373	
2260	0.256653	-0.0192261	
2261	0.249939	-0.0195313	
2262	0.247192	-0.0187683	
2263	0.24292	-0.0163269	
2264	0.235596	-0.0149536	
2265	0.231934	-0.014801	
2266	0.227356	-0.0138855	
2267	0.223083	-0.0115967	
2268	0.217896	-0.00900269	
2269	0.214844	-0.00778198	
2270	0.210266	-0.00732422	
2271	0.205383	-0.00839233	
2272	0.2005	-0.00747681	
2273	0.196838	-0.00717163	
2274	0.193481	-0.00640869	
2275	0.189819	-0.00488281	
2276	0.184326	-0.0050354	
2277	0.180664	-0.00366211	
2278	0.175781	-0.00366211	
2279	0.171509	-0.00228882	
2280	0.168152	-0.000457764	
2281	0.163879	0.00259399	
2282	0.158997	0.00701904	
2283	0.158386	0.00930786	
2284	0.151978	0.0088501	
2285	0.151062	0.00732422	
2286	0.1474	0.00747681	
2287	0.141602	0.00793457	
2288	0.139465	0.0117493	
2289	0.136719	0.0138855	
2290	0.132751	0.017395	
2291	0.127869	0.0196838	
2292	0.125122	0.0196838	
2293	0.12146	0.0195313	
2294	0.120239	0.0196838	
2295	0.115662	0.0213623	
2296	0.110168	0.0219727	
2297	0.106812	0.0228882	
2298	0.10498	0.0241089	
2299	0.100403	0.0242615	
2300	0.0979614	0.022583	
2301	0.0933838	0.0222778	
2302	0.0906372	0.0239563	
2303	0.0878906	0.0241089	
2304	0.0830078	0.0236511	
2305	0.0793457	0.0212097	
2306	0.0762939	0.0198364	
2307	0.0738525	0.0196838	
2308	0.0695801	0.019989	
2309	0.0637817	0.0222778	
2310	0.0598145	0.0227356	
2311	0.0540161	0.0263977	
2312	0.0515747	0.027771	
2313	0.0469971	0.0265503	
2314	0.0421143	0.0248718	
2315	0.0390625	0.0248718	
2316	0.03479	0.025177	
2317	0.0299072	0.0271606	
2318	0.0271606	0.0285339	
2319	0.0228882	0.0312805	
2320	0.0198364	0.0318909	
2321	0.0149536	0.0320435	
2322	0.0109863	0.0326538	
2323	0.00701904	0.0340271	
2324	0.00549316	0.0344849	
2325	0.000305176	0.0344849	
2326	-0.00488281	0.0335693	
2327	-0.00701904	0.0317383	
2328	-0.0109863	0.0320435	
2329	-0.0140381	0.0318909	
2330	-0.0189209	0.032196	
2331	-0.0216675	0.0346375	
2332	-0.0265503	0.0390625	
2333	-0.0292969	0.0431824	
2334	-0.032959	0.0428772	
2335	-0.0369263	0.0419617	
2336	-0.0411987	0.0434875	
2337	-0.0457764	0.0463867	
2338	-0.0506592	0.0505066	
2339	-0.055542	0.0514221	
2340	-0.0585938	0.0512695	
2341	-0.0653076	0.0535583	
2342	-0.0704956	0.0534058	
2343	-0.0747681	0.0556946	
2344	-0.0784302	0.0558472	
2345	-0.0845337	0.0569153	
2346	-0.090332	0.0602722	
2347	-0.0927734	0.0628662	
2348	-0.0967407	0.0613403	
2349	-0.101929	0.06073	
2350	-0.107117	0.0616455	
2351	-0.111694	0.0630188	
2352	-0.114441	0.0660706	
2353	-0.119324	0.0683594	
2354	-0.12207	0.068512	
2355	-0.129089	0.0701904	
2356	-0.131836	0.0704956	
2357	-0.134583	0.0689697	
2358	-0.141296	0.070343	
2359	-0.144348	0.0747681	
2360	-0.149231	0.0759888	
2361	-0.153503	0.0749207	
2362	-0.158081	0.0743103	
2363	-0.160828	0.0762939	
2364	-0.165405	0.0778198	
2365	-0.170593	0.0775146	
2366	-0.172729	0.0752258	
2367	-0.177307	0.0724792	
2368	-0.182495	0.0712585	
2369	-0.185242	0.0666809	
2370	-0.189209	0.065918	
2371	-0.193176	0.0666809	
2372	-0.200195	0.0689697	
2373	-0.201111	0.0714111	
2374	-0.202332	0.0750732	
2375	-0.205078	0.0772095	
2376	-0.20752	0.0733948	
2377	-0.210571	0.0679016	
2378	-0.209656	0.065155	
2379	-0.214539	0.06073	
2380	-0.21637	0.0579834	
2381	-0.215149	0.0585938	
2382	-0.215759	0.0608826	
2383	-0.214539	0.0604248	
2384	-0.215759	0.0559998	
2385	-0.213318	0.0537109	
2386	-0.211182	0.0532532	
2387	-0.209961	0.0495911	
2388	-0.206299	0.0454712	
2389	-0.203857	0.0447083	
2390	-0.196533	0.045166	
2391	-0.191345	0.0431824	
2392	-0.188904	0.0390625	
2393	-0.182495	0.0370789	
2394	-0.175171	0.0343323	
2395	-0.166931	0.0323486	
2396	-0.159607	0.0296021	
2397	-0.151367	0.0289917	
2398	-0.140991	0.0263977	
2399	-0.135193	0.0239563	
2400	-0.121155	0.0244141	
2401	-0.111694	0.022583	
2402	-0.101929	0.0213623	
2403	-0.0878906	0.0190735	
2404	-0.0753784	0.0144958	
2405	-0.0601196	0.0115967	
2406	-0.0476074	0.0102234	
2407	-0.0338745	0.00778198	
2408	-0.0192261	0.00686646	
2409	-0.00457764	0.00335693	
2410	0.012207	-0.00244141	
2411	0.0289917	-0.00671387	
2412	0.0457764	-0.00442505	
2413	0.0616455	-0.00198364	
2414	0.0799561	-0.000762939	
2415	0.0979614	-0.00518799	
2416	0.114136	-0.00717163	
2417	0.133972	-0.00915527	
2418	0.153809	-0.00991821	
2419	0.173035	-0.0105286	
2420	0.191956	-0.0125122	
2421	0.212097	-0.0132751	
2422	0.231323	-0.0164795	
2423	0.252686	-0.0187683	
2424	0.274048	-0.0201416	
2425	0.294189	-0.0236511	
2426	0.314636	-0.0244141	
2427	0.335999	-0.0263977	
2428	0.360718	-0.0289917	
2429	0.381165	-0.0323486	
2430	0.407104	-0.0340271	
2431	0.427551	-0.0354004	
2432	0.449524	-0.0361633	
2433	0.470886	-0.0363159	
2434	0.493164	-0.0389099	
2435	0.517273	-0.0390625	
2436	0.539551	-0.0390625	
2437	0.559387	-0.0375366	
2438	0.583801	-0.0349426	
2439	0.604248	-0.0361633	
2440	0.627136	-0.0372314	
2441	0.647888	-0.0401306	
2442	0.66925	-0.0416565	
2443	0.691833	-0.0434875	
2444	0.712891	-0.0468445	
2445	0.736389	-0.0491333	
2446	0.75592	-0.0491333	
2447	0.777588	-0.0502014	
2448	0.79834	-0.0514221	
2449	0.819397	-0.0514221	
2450	0.841064	-0.0515747	
2451	0.863037	-0.0523376	
2452	0.882874	-0.0541687	
2453	0.902405	-0.0572205	
2454	0.924683	-0.0588989	
2455	0.944214	-0.0578308	
2456	0.966187	-0.0538635	
2457	0.985107	-0.0514221	
2458	1.00555	-0.0515747	
2459	1.02539	-0.0534058	
2460	1.04065	-0.0538635	
2461	1.05957	-0.0540161	
2462	1.0791	-0.0544739	
2463	1.09802	-0.0579834	
2464	1.11786	-0.0596619	
2465	1.13403	-0.0617981	
2466	1.15265	-0.0636292	
2467	1.1673	-0.062561	
2468	1.18713	-0.0605774	
2469	1.2027	-0.058136	
2470	1.21765	-0.0540161	
2471	1.23413	-0.0492859	
2472	1.25	-0.0509644	
2473	1.26404	-0.0515747	
2474	1.27991	-0.0534058	
2475	1.29333	-0.0559998	
2476	1.30707	-0.0563049	
2477	1.32202	-0.0535583	
2478	1.33606	-0.0509644	
2479	1.34705	-0.0488281	
2480	1.35834	-0.0502014	
2481	1.37085	-0.0540161	
2482	1.38306	-0.0564575	
2483	1.39557	-0.0556946	
2484	1.40594	-0.0558472	
2485	1.41754	-0.0564575	
2486	1.42792	-0.0566101	
2487	1.43829	-0.0543213	
2488	1.44562	-0.0541687	
2489	1.45477	-0.0517273	
2490	1.46454	-0.0515747	
2491	1.474	-0.0486755	
2492	1.48163	-0.045929	
2493	1.48895	-0.045166	
2494	1.49872	-0.0465393	
2495	1.50452	-0.0463867	
2496	1.51306	-0.0456238	
2497	1.51917	-0.0445557	
2498	1.52405	-0.0460815	
2499	1.53137	-0.0466919	
2500	1.53656	-0.0466919	
2501	1.54144	-0.0468445	
2502	1.54633	-0.0454712	
2503	1.5506	-0.0445557	
2504	1.55518	-0.0444031	
2505	1.56006	-0.045929	
2506	1.56128	-0.0457764	
2507	1.56769	-0.0442505	
2508	1.57104	-0.0415039	
2509	1.5741	-0.0395203	
2510	1.57623	-0.0370789	
2511	1.57562	-0.0367737	
2512	1.57959	-0.0375366	
2513	1.58051	-0.0386047	
2514	1.58325	-0.0369263	
2515	1.58539	-0.0369263	
2516	1.58569	-0.0360107	
2517	1.58569	-0.0344849	
2518	1.58569	-0.035553	
2519	1.58508	-0.0352478	
2520	1.58783	-0.0346375	
2521	1.59088	-0.0314331	
2522	1.58997	-0.0274658	
2523	1.59088	-0.0256348	
2524	1.59058	-0.0262451	
2525	1.58844	-0.0265503	
2526	1.58997	-0.0276184	
2527	1.58875	-0.0289917	
2528	1.586	-0.0271606	
2529	1.586	-0.0270081	
2530	1.586	-0.0248718	
2531	1.586	-0.0234985	
2532	1.58569	-0.0228882	
2533	1.586	-0.0242615	
2534	1.5863	-0.0259399	
2535	1.586	-0.0268555	
2536	1.58386	-0.0259399	
2537	1.58356	-0.0274658	
2538	1.58081	-0.0271606	
2539	1.58081	-0.025177	
2540	1.57745	-0.0231934	
2541	1.57593	-0.0221252	
2542	1.57349	-0.022583	
2543	1.57166	-0.0233459	
2544	1.56891	-0.0244141	
2545	1.56677	-0.0253296	
2546	1.56647	-0.0267029	
2547	1.56433	-0.0268555	
2548	1.56158	-0.0259399	
2549	1.55914	-0.0263977	
2550	1.55426	-0.0283813	
2551	1.55212	-0.0274658	
2552	1.55121	-0.0271606	
2553	1.54724	-0.0268555	
2554	1.5448	-0.0262451	
2555	1.54175	-0.0257874	
2556	1.53717	-0.0248718	
2557	1.5329	-0.0244141	
2558	1.52985	-0.025177	
2559	1.52527	-0.027771	
2560	1.52222	-0.0291443	
2561	1.51855	-0.0285339	
2562	1.51367	-0.0259399	
2563	1.50848	-0.0276184	
2564	1.5033	-0.0317383	
2565	1.49811	-0.0335693	
2566	1.49261	-0.0309753	
2567	1.48682	-0.0302124	
2568	1.48132	-0.0292969	
2569	1.474	-0.0289917	
2570	1.47125	-0.0270081	
2571	1.46423	-0.0271606	
2572	1.45721	-0.0250244	
2573	1.45111	-0.0242615	
2574	1.44684	-0.0241089	
2575	1.43738	-0.0262451	
2576	1.43646	-0.0273132	
2577	1.42944	-0.027771	
2578	1.42242	-0.0280762	
2579	1.4151	-0.0262451	
2580	1.41205	-0.0227356	
2581	1.40747	-0.0219727	
2582	1.40106	-0.0221252	
2583	1.39496	-0.0222778	
2584	1.38885	-0.0219727	
2585	1.38306	-0.022583	
2586	1.37604	-0.0263977	
2587	1.37115	-0.0268555	
2588	1.36444	-0.0248718	
2589	1.35864	-0.0244141	
2590	1.35193	-0.0250244	
2591	1.34705	-0.0288391	
2592	1.33942	-0.0314331	
2593	1.33423	-0.0317383	
2594	1.32965	-0.0300598	
2595	1.32416	-0.0294495	
2596	1.31989	-0.0273132	
2597	1.31317	-0.0279236	
2598	1.30737	-0.0291443	
2599	1.30035	-0.0292969	
2600	1.29272	-0.0276184	
2601	1.28784	-0.0241089	
2602	1.28326	-0.0215149	
2603	1.27655	-0.0183105	
2604	1.26831	-0.0175476	
2605	1.26404	-0.019989	
2606	1.25854	-0.0267029	
2607	1.25183	-0.0312805	
2608	1.24176	-0.0289917	
2609	1.23688	-0.0242615	
2610	1.2323	-0.0222778	
2611	1.22437	-0.0241089	
2612	1.21796	-0.0262451	
2613	1.21002	-0.0286865	
2614	1.203	-0.0292969	
2615	1.1972	-0.0292969	
2616	1.18988	-0.0294495	
2617	1.18317	-0.0300598	
2618	1.17798	-0.032959	
2619	1.16882	-0.0314331	
2620	1.16119	-0.0292969	
2621	1.15387	-0.0280762	
2622	1.14838	-0.0311279	
2623	1.14166	-0.0349426	
2624	1.13403	-0.0357056	
2625	1.12671	-0.0317383	
2626	1.12122	-0.0268555	
2627	1.1142	-0.0244141	
2628	1.1087	-0.0247192	
2629	1.10138	-0.0265503	
2630	1.09528	-0.027771	
2631	1.08948	-0.0288391	
2632	1.08185	-0.0271606	
2633	1.07788	-0.0289917	
2634	1.07178	-0.0291443	
2635	1.06506	-0.0292969	
2636	1.06018	-0.0280762	
2637	1.05286	-0.0294495	
2638	1.04858	-0.0296021	
2639	1.04095	-0.0302124	
2640	1.03577	-0.0296021	
2641	1.03088	-0.0296021	
2642	1.0257	-0.0282288	
2643	1.01868	-0.0294495	
2644	1.01593	-0.0280762	
2645	1.01105	-0.0279236	
2646	1.00555	-0.0302124	
2647	1.00067	-0.0343323	
2648	0.996094	-0.0358582	
2649	0.993347	-0.0335693	
2650	0.989685	-0.0297546	
2651	0.984802	-0.0289917	
2652	0.978699	-0.0302124	
2653	0.976868	-0.0288391	
2654	0.97229	-0.0271606	
2655	0.968933	-0.0270081	
2656	0.96283	-0.027771	
2657	0.961304	-0.0289917	
2658	0.954285	-0.0276184	
2659	0.952148	-0.022583	
2660	0.949402	-0.0216675	
2661	0.947266	-0.0245667	
2662	0.944519	-0.0274658	
2663	0.940552	-0.0289917	
2664	0.9375	-0.0296021	
2665	0.935364	-0.0294495	
2666	0.932922	-0.0274658	
2667	0.928345	-0.0267029	
2668	0.925598	-0.0268555	
2669	0.922852	-0.0267029	
2670	0.920105	-0.0248718	
2671	0.917969	-0.0244141	
2672	0.914612	-0.0260925	
2673	0.913086	-0.0267029	
2674	0.91095	-0.0260925	
2675	0.907593	-0.0247192	
2676	0.905762	-0.0233459	
2677	0.905762	-0.0219727	
2678	0.904846	-0.019989	
2679	0.901184	-0.0193787	
2680	0.900269	-0.0193787	
2681	0.900574	-0.0195313	
2682	0.898438	-0.0196838	
2683	0.895386	-0.0187683	
2684	0.895691	-0.0183105	
2685	0.895386	-0.0166321	
2686	0.895081	-0.014801	
2687	0.895081	-0.015564	
2688	0.895386	-0.0169373	
2689	0.89325	-0.0170898	
2690	0.892944	-0.0169373	
2691	0.891724	-0.0177002	
2692	0.89447	-0.0212097	
2693	0.894775	-0.0239563	
2694	0.895081	-0.0247192	
2695	0.895386	-0.0242615	
2696	0.895386	-0.022583	
2697	0.895386	-0.0209045	
2698	0.895691	-0.0166321	
2699	0.899963	-0.0100708	
2700	0.900574	-0.00549316	
2701	0.900574	-0.00701904	
2702	0.900574	-0.00732422	
2703	0.90271	-0.00701904	
2704	0.905457	-0.00640869	
2705	0.905151	-0.00442505	
2706	0.905151	-0.000457764	
2707	0.905151	0	
2708	0.905457	0.00259399	
2709	0.909729	0.00549316	
2710	0.908203	0.00823975	
2711	0.909424	0.0108337	
2712	0.910339	0.0120544	
2713	0.910645	0.0134277	
2714	0.912476	0.0125122	
2715	0.914612	0.0125122	
2716	0.914917	0.0134277	
2717	0.915222	0.0117493	
2718	0.915222	0.00900269	
2719	0.914917	0.00701904	
2720	0.914612	0.00335693	
2721	0.917664	0.00167847	
2722	0.918274	-0.000762939	
2723	0.920105	-0.00244141	
2724	0.920715	-0.00259399	
2725	0.917969	-0.000457764	
2726	0.9198	0.000610352	
2727	0.920105	0.000610352	
2728	0.919495	-0.000762939	
2729	0.9198	-0.00228882	
2730	0.9198	-0.00320435	
2731	0.9198	-0.00686646	
2732	0.915833	-0.00656128	
2733	0.919495	-0.0038147	
2734	0.917969	-0.00274658	
2735	0.915222	-0.000457764	
2736	0.915222	0.000305176	
2737	0.915222	-0.00183105	
2738	0.914917	-0.00320435	
2739	0.911255	-0.00442505	
2740	0.91095	-0.00473022	
2741	0.909119	-0.00671387	
2742	0.906372	-0.00808716	
2743	0.905151	-0.0105286	
2744	0.90332	-0.010376	
2745	0.900574	-0.00976563	
2746	0.900574	-0.0088501	
2747	0.898438	-0.00930786	
2748	0.895996	-0.0105286	
2749	0.89386	-0.0146484	
2750	0.890503	-0.0169373	
2751	0.890198	-0.0192261	
2752	0.886841	-0.0198364	
2753	0.885925	-0.0195313	
2754	0.885925	-0.0186157	
2755	0.883179	-0.018158	
2756	0.881348	-0.0166321	
2757	0.881042	-0.0144958	
2758	0.881042	-0.0146484	
2759	0.878601	-0.0177002	
2760	0.87616	-0.0230408	
2761	0.875854	-0.0314331	
2762	0.875854	-0.0370789	
2763	0.871582	-0.0408936	
2764	0.871277	-0.0434875	
2765	0.870972	-0.045929	
2766	0.869446	-0.0485229	
2767	0.866089	-0.0500488	
2768	0.866089	-0.0476074	
2769	0.861816	-0.0445557	
2770	0.861206	-0.0421143	
2771	0.85907	-0.0389099	
2772	0.856628	-0.0370789	
2773	0.854492	-0.0376892	
2774	0.851746	-0.0389099	
2775	0.851135	-0.0410461	
2776	0.848999	-0.0416565	
2777	0.845947	-0.0422668	
2778	0.846558	-0.0439453	
2779	0.84198	-0.0422668	
2780	0.842285	-0.040741	
2781	0.841064	-0.0387573	
2782	0.837402	-0.0389099	
2783	0.837402	-0.0410461	
2784	0.835266	-0.040741	
2785	0.831909	-0.0393677	
2786	0.831604	-0.0372314	
2787	0.827637	-0.0366211	
2788	0.827026	-0.0387573	
2789	0.8255	-0.0392151	
2790	0.822449	-0.0390625	
2791	0.817566	-0.0402832	
2792	0.813904	-0.0384521	
2793	0.813599	-0.0366211	
2794	0.809631	-0.0369263	
2795	0.807495	-0.0360107	
2796	0.803833	-0.0335693	
2797	0.799866	-0.0315857	
2798	0.797424	-0.0315857	
2799	0.795288	-0.0315857	
2800	0.790405	-0.0318909	
2801	0.78949	-0.0338745	
2802	0.783386	-0.0361633	
2803	0.782776	-0.0358582	
2804	0.778809	-0.0344849	
2805	0.775452	-0.0352478	
2806	0.773621	-0.0343323	
2807	0.770874	-0.03479	
2808	0.768127	-0.0376892	
2809	0.763855	-0.0389099	
2810	0.761108	-0.0389099	
2811	0.756531	-0.0390625	
2812	0.753784	-0.0390625	
2813	0.751038	-0.0393677	
2814	0.744934	-0.040741	
2815	0.741272	-0.0395203	
2816	0.738831	-0.0384521	
2817	0.733948	-0.0338745	
2818	0.731201	-0.0302124	
2819	0.72937	-0.0239563	
2820	0.724487	-0.0193787	
2821	0.719604	-0.00961304	
2822	0.718689	0.00213623	
2823	0.715027	0.00991821	
2824	0.710144	0.0151062	
2825	0.707092	0.0195313	
2826	0.704041	0.0265503	
2827	0.700073	0.0317383	
2828	0.69519	0.0369263	
2829	0.691833	0.043335	
2830	0.688477	0.0469971	
2831	0.685425	0.0520325	
2832	0.680847	0.0614929	
2833	0.67749	0.0737	
2834	0.672913	0.0863647	
2835	0.668335	0.0987244	
2836	0.665283	0.114899	
2837	0.661011	0.130615	
2838	0.656433	0.144196	
2839	0.65155	0.151672	
2840	0.648499	0.155029	
2841	0.645447	0.156403	
2842	0.641479	0.156555	
2843	0.63446	0.158081	
2844	0.631104	0.158844	
2845	0.627136	0.158691	
2846	0.62439	0.157776	
2847	0.619202	0.154724	
2848	0.61615	0.148163	
2849	0.612793	0.142517	
2850	0.6073	0.140991	
2851	0.602722	0.131836	
2852	0.59967	0.121155	
2853	0.597229	0.109406	
2854	0.593262	0.0961304	
2855	0.588074	0.0744629	
2856	0.585022	0.0491333	
2857	0.582275	0.0172424	
2858	0.575562	-0.0198364	
2859	0.572815	-0.0523376	
2860	0.567932	-0.083313	
2861	0.563354	-0.106201	
2862	0.559998	-0.121918	
2863	0.55481	-0.13031	
2864	0.551147	-0.134125	
2865	0.549622	-0.134735	
2866	0.543213	-0.134583	
2867	0.538025	-0.133057	
2868	0.533752	-0.130615	
2869	0.530701	-0.130768	
2870	0.526123	-0.135803	
2871	0.520935	-0.143738	
2872	0.516357	-0.156403	
2873	0.513611	-0.172729	
2874	0.509033	-0.189667	
2875	0.50354	-0.207214	
2876	0.497437	-0.222931	
2877	0.492249	-0.229187	
2878	0.488892	-0.223541	
2879	0.484314	-0.209961	
2880	0.481873	-0.194855	
2881	0.47699	-0.177612	
2882	0.471802	-0.15564	
2883	0.466919	-0.130615	
2884	0.462646	-0.102234	
2885	0.459595	-0.0787354	
2886	0.455322	-0.063324	
2887	0.450439	-0.0482178	
2888	0.446167	-0.0361633	
2889	0.44281	-0.0294495	
2890	0.438538	-0.0260925	
2891	0.432129	-0.0228882	
2892	0.428467	-0.0228882	
2893	0.426941	-0.0244141	
2894	0.418701	-0.0256348	
2895	0.415344	-0.0263977	
2896	0.411377	-0.0248718	
2897	0.406494	-0.0239563	
2898	0.403748	-0.0263977	
2899	0.397034	-0.0260925	
2900	0.393372	-0.0227356	
2901	0.388794	-0.0202942	
2902	0.385437	-0.0222778	
2903	0.38269	-0.0222778	
2904	0.378418	-0.0219727	
2905	0.374146	-0.0216675	
2906	0.371399	-0.0230408	
2907	0.366821	-0.0233459	
2908	0.362244	-0.019989	
2909	0.35675	-0.0186157	
2910	0.352783	-0.0154114	
2911	0.348206	-0.0143433	
2912	0.342407	-0.0152588	
2913	0.337524	-0.0151062	
2914	0.334167	-0.0137329	
2915	0.327759	-0.0141907	
2916	0.325012	-0.0146484	
2917	0.320435	-0.0146484	
2918	0.315247	-0.0154114	
2919	0.310669	-0.0172424	
2920	0.305481	-0.0178528	
2921	0.300598	-0.0193787	
2922	0.296631	-0.0202942	
2923	0.290833	-0.0218201	
2924	0.288696	-0.0219727	
2925	0.284119	-0.0219727	
2926	0.279541	-0.0218201	
2927	0.274658	-0.0244141	
2928	0.268555	-0.0268555	
2929	0.266113	-0.0280762	
2930	0.262146	-0.0263977	
2931	0.258484	-0.0254822	
2932	0.25177	-0.0268555	
2933	0.248718	-0.0267029	
2934	0.245667	-0.0267029	
2935	0.241699	-0.0279236	
2936	0.237122	-0.0262451	
2937	0.234375	-0.0247192	
2938	0.227966	-0.0244141	
2939	0.224609	-0.0224304	
2940	0.220032	-0.0180054	
2941	0.215759	-0.0172424	
2942	0.212708	-0.0152588	
2943	0.20752	-0.0154114	
2944	0.204773	-0.0132751	
2945	0.19928	-0.0120544	
2946	0.197754	-0.0144958	
2947	0.193176	-0.0164795	
2948	0.188293	-0.0180054	
2949	0.185242	-0.0177002	
2950	0.183105	-0.0169373	
2951	0.175781	-0.0170898	
2952	0.173645	-0.0164795	
2953	0.170288	-0.0138855	
2954	0.163574	-0.0119019	
2955	0.159302	-0.0120544	
2956	0.15625	-0.0120544	
2957	0.151672	-0.00930786	
2958	0.14679	-0.00762939	
2959	0.141602	-0.00534058	
2960	0.136719	-0.0038147	
2961	0.132141	-0.00244141	
2962	0.129395	-0.000457764	
2963	0.124817	0.00167847	
2964	0.120239	0.000762939	
2965	0.112915	0.000152588	
2966	0.109558	-0.000152588	
2967	0.103455	0.00167847	
2968	0.101929	0.00457764	
2969	0.0982666	0.00701904	
2970	0.0946045	0.00946045	
2971	0.0875854	0.010376	
2972	0.0857544	0.012207	
2973	0.0787354	0.0152588	
2974	0.0759888	0.0172424	
2975	0.0708008	0.0190735	
2976	0.0665283	0.0186157	
2977	0.0634766	0.0189209	
2978	0.0588989	0.0177002	
2979	0.0561523	0.0190735	
2980	0.0494385	0.0216675	
2981	0.0460815	0.0228882	
2982	0.0424194	0.025177	
2983	0.0393677	0.0270081	
2984	0.03479	0.0273132	
2985	0.0296021	0.025177	
2986	0.0250244	0.0227356	
2987	0.0204468	0.0221252	
2988	0.0170898	0.0219727	
2989	0.0146484	0.0222778	
2990	0.012207	0.0222778	
2991	0.00701904	0.0210571	
2992	0.00427246	0.0228882	
2993	0.000915527	0.0241089	
2994	-0.00427246	0.0247192	
2995	-0.00732422	0.0254822	
2996	-0.0134277	0.027771	
2997	-0.0143433	0.0294495	
2998	-0.0186157	0.0297546	
2999	-0.0238037	0.0291443	
3000	-0.0286865	0.0283813	
3001	-0.0292969	0.0274658	
3002	-0.032959	0.0270081	
3003	-0.0363159	0.0296021	
3004	-0.0390625	0.0343323	
3005	-0.0430298	0.0358582	
3006	-0.0457764	0.0361633	
3007	-0.0527954	0.0367737	
3008	-0.0534058	0.0354004	
3009	-0.0576782	0.03479	
3010	-0.0628662	0.0346375	
3011	-0.067749	0.0364685	
3012	-0.0708008	0.037384	
3013	-0.072937	0.0398254	
3014	-0.0802612	0.0404358	
3015	-0.083313	0.0415039	
3016	-0.0854492	0.0421143	
3017	-0.0900269	0.0437927	
3018	-0.0930786	0.0462341	
3019	-0.0997925	0.0471497	
3020	-0.102844	0.0497437	
3021	-0.109558	0.0520325	
3022	-0.110168	0.0540161	
3023	-0.115662	0.0558472	
3024	-0.120239	0.0549316	
3025	-0.124817	0.0558472	
3026	-0.126953	0.058136	
3027	-0.131531	0.058136	
3028	-0.13855	0.0585938	
3029	-0.141602	0.0601196	
3030	-0.148621	0.0616455	
3031	-0.149536	0.0640869	
3032	-0.15564	0.0665283	
3033	-0.160522	0.0683594	
3034	-0.16449	0.068512	
3035	-0.168762	0.0654602	
3036	-0.17334	0.0611877	
3037	-0.176086	0.062561	
3038	-0.180359	0.0653076	
3039	-0.187683	0.0686646	
3040	-0.19104	0.0694275	
3041	-0.195007	0.0704956	
3042	-0.200195	0.0704956	
3043	-0.202942	0.0708008	
3044	-0.210266	0.0706482	
3045	-0.211792	0.0726318	
3046	-0.21698	0.0762939	
3047	-0.219727	0.0761414	
3048	-0.224304	0.0767517	
3049	-0.224609	0.0758362	
3050	-0.228882	0.0758362	
3051	-0.232239	0.0744629	
3052	-0.236511	0.0749207	
3053	-0.239563	0.0735474	
3054	-0.242004	0.0749207	
3055	-0.24292	0.0756836	
3056	-0.24353	0.0740051	
3057	-0.244141	0.0735474	
3058	-0.245056	0.0726318	
3059	-0.244446	0.0700378	
3060	-0.244751	0.065918	
3061	-0.244751	0.0628662	
3062	-0.244141	0.0627136	
3063	-0.245056	0.0616455	
3064	-0.240784	0.0602722	
3065	-0.239868	0.0567627	
3066	-0.237732	0.0532532	
3067	-0.234375	0.0505066	
3068	-0.230408	0.04776	
3069	-0.225525	0.0485229	
3070	-0.222778	0.0468445	
3071	-0.218201	0.0457764	
3072	-0.213013	0.0419617	
3073	-0.203552	0.0405884	
3074	-0.198364	0.0384521	
3075	-0.193787	0.0350952	
3076	-0.184326	0.0340271	
3077	-0.178833	0.0341797	
3078	-0.169983	0.0337219	
3079	-0.159607	0.0335693	
3080	-0.150452	0.0320435	
3081	-0.140076	0.0299072	
3082	-0.131226	0.0274658	
3083	-0.115967	0.0244141	
3084	-0.104675	0.0187683	
3085	-0.0918579	0.0143433	
3086	-0.078125	0.010376	
3087	-0.0628662	0.0088501	
3088	-0.0500488	0.00778198	
3089	-0.0338745	0.00640869	
3090	-0.0189209	0.00427246	
3091	-0.000305176	-0.000305176	
3092	0.0170898	-0.00213623	
3093	0.0344849	-0.00228882	
3094	0.0518799	-0.00106812	
3095	0.0708008	-0.000457764	
3096	0.0897217	-0.000610352	
3097	0.110168	-0.00228882	
3098	0.129089	-0.00305176	
3099	0.148621	-0.00549316	
3100	0.169067	-0.0102234	
3101	0.190125	-0.01297	
3102	0.211792	-0.0152588	
3103	0.231628	-0.0167847	
3104	0.256042	-0.0180054	
3105	0.27832	-0.0210571	
3106	0.301208	-0.0250244	
3107	0.322876	-0.0267029	
3108	0.344238	-0.0267029	
3109	0.368652	-0.0265503	
3110	0.393372	-0.0265503	
3111	0.415649	-0.0256348	
3112	0.440063	-0.0271606	
3113	0.461731	-0.0274658	
3114	0.486145	-0.0306702	
3115	0.510864	-0.0367737	
3116	0.535278	-0.0415039	
3117	0.557251	-0.0421143	
3118	0.58197	-0.039978	
3119	0.606384	-0.0398254	
3120	0.628662	-0.0422668	
3121	0.652161	-0.0439453	
3122	0.677185	-0.0460815	
3123	0.701904	-0.0471497	
3124	0.726013	-0.0488281	
3125	0.747681	-0.0511169	
3126	0.773315	-0.0521851	
3127	0.797119	-0.0540161	
3128	0.819702	-0.0537109	
3129	0.841064	-0.0537109	
3130	0.867615	-0.0520325	
3131	0.891113	-0.0512695	
3132	0.910339	-0.0541687	
3133	0.935364	-0.0559998	
3134	0.957031	-0.0570679	
3135	0.980835	-0.0585938	
3136	1.00311	-0.0567627	
3137	1.02509	-0.0563049	
3138	1.04736	-0.058136	
3139	1.06995	-0.0587463	
3140	1.09009	-0.0610352	
3141	1.11115	-0.0595093	
3142	1.13251	-0.0587463	
3143	1.15295	-0.0608826	
3144	1.1731	-0.0616455	
3145	1.19232	-0.0605774	
3146	1.21185	-0.0587463	
3147	1.23077	-0.0559998	
3148	1.25122	-0.0556946	
3149	1.26831	-0.0584412	
3150	1.2854	-0.0598145	
3151	1.30524	-0.0608826	
3152	1.32233	-0.0621033	
3153	1.33881	-0.0634766	
3154	1.35406	-0.0636292	
3155	1.37299	-0.0637817	
3156	1.38885	-0.0608826	
3157	1.40289	-0.0576782	
3158	1.41785	-0.0572205	
3159	1.43433	-0.0588989	
3160	1.44989	-0.0602722	
3161	1.4621	-0.0605774	
3162	1.47827	-0.0613403	
3163	1.49109	-0.0611877	
3164	1.50421	-0.0614929	
3165	1.51794	-0.0582886	
3166	1.52771	-0.0544739	
3167	1.54297	-0.0544739	
3168	1.55334	-0.0561523	
3169	1.56464	-0.055542	
3170	1.57745	-0.0540161	
3171	1.58722	-0.0521851	
3172	1.59668	-0.0494385	
3173	1.60675	-0.0488281	
3174	1.61652	-0.0498962	
3175	1.62598	-0.0532532	
3176	1.63605	-0.0552368	
3177	1.64398	-0.0531006	
3178	1.651	-0.0514221	
3179	1.65863	-0.0485229	
3180	1.66779	-0.0463867	
3181	1.67542	-0.0465393	
3182	1.68304	-0.0468445	
3183	1.68793	-0.0473022	
3184	1.69708	-0.0492859	
3185	1.70471	-0.0531006	
3186	1.71051	-0.0531006	
3187	1.71509	-0.0508118	
3188	1.71997	-0.0483704	
3189	1.72485	-0.045166	
3190	1.72974	-0.0398254	
3191	1.73523	-0.039978	
3192	1.74194	-0.0415039	
3193	1.74561	-0.0413513	
3194	1.74988	-0.0396729	
3195	1.75476	-0.038147	
3196	1.75781	-0.0366211	
3197	1.76147	-0.0369263	
3198	1.76697	-0.0366211	
3199	1.76758	-0.0366211	
3200	1.7688	-0.03479	
3201	1.77155	-0.0320435	
3202	1.77185	-0.0312805	
3203	1.77399	-0.0312805	
3204	1.77704	-0.0299072	
3205	1.77643	-0.0291443	
3206	1.77856	-0.0292969	
3207	1.77765	-0.0291443	
3208	1.77795	-0.0297546	
3209	1.77948	-0.0302124	
3210	1.78131	-0.0320435	
3211	1.78131	-0.0317383	
3212	1.78162	-0.0309753	
3213	1.78162	-0.0282288	
3214	1.78223	-0.0270081	
3215	1.77917	-0.0274658	
3216	1.78101	-0.027771	
3217	1.77704	-0.0292969	
3218	1.77643	-0.0279236	
3219	1.77734	-0.0267029	
3220	1.77673	-0.0267029	
3221	1.7746	-0.0268555	
3222	1.77155	-0.0270081	
3223	1.77185	-0.0265503	
3224	1.77032	-0.0267029	
3225	1.76758	-0.0247192	
3226	1.76697	-0.0242615	
3227	1.7627	-0.0236511	
3228	1.76178	-0.0228882	
3229	1.76025	-0.0270081	
3230	1.7569	-0.0311279	
3231	1.75751	-0.0317383	
3232	1.75323	-0.0308228	
3233	1.75232	-0.0256348	
3234	1.74744	-0.0192261	
3235	1.7453	-0.0170898	
3236	1.745	-0.0198364	
3237	1.74042	-0.0218201	
3238	1.73828	-0.0238037	
3239	1.73798	-0.0244141	
3240	1.73157	-0.0265503	
3241	1.73004	-0.0270081	
3242	1.72577	-0.0267029	
3243	1.72302	-0.0268555	
3244	1.72241	-0.0268555	
3245	1.72028	-0.0244141	
3246	1.71631	-0.0222778	
3247	1.71387	-0.0247192	
3248	1.70898	-0.0286865	
3249	1.70654	-0.0292969	
3250	1.70135	-0.0283813	
3251	1.69647	-0.0262451	
3252	1.69098	-0.0247192	
3253	1.68976	-0.0245667	
3254	1.68488	-0.0265503	
3255	1.68182	-0.0268555	
3256	1.67633	-0.0270081	
3257	1.6745	-0.0231934	
3258	1.67023	-0.019989	
3259	1.66504	-0.0177002	
3260	1.65955	-0.0169373	
3261	1.6571	-0.0198364	
3262	1.65222	-0.0218201	
3263	1.64612	-0.0218201	
3264	1.64093	-0.0219727	
3265	1.63574	-0.0216675	
3266	1.63086	-0.0218201	
3267	1.62659	-0.0218201	
3268	1.62048	-0.0212097	
3269	1.61346	-0.0210571	
3270	1.60797	-0.0209045	
3271	1.60309	-0.0215149	
3272	1.59882	-0.022583	
3273	1.5921	-0.0242615	
3274	1.58661	-0.0227356	
3275	1.58173	-0.0222778	
3276	1.57288	-0.0230408	
3277	1.56677	-0.0236511	
3278	1.56219	-0.0222778	
3279	1.55365	-0.0212097	
3280	1.54938	-0.0198364	
3281	1.54297	-0.0175476	
3282	1.53503	-0.0170898	
3283	1.53046	-0.0198364	
3284	1.52252	-0.0218201	
3285	1.51581	-0.0218201	
3286	1.51062	-0.0241089	
3287	1.50513	-0.0254822	
3288	1.50024	-0.0242615	
3289	1.49353	-0.0247192	
3290	1.4859	-0.0242615	
3291	1.48132	-0.0234985	
3292	1.47583	-0.0210571	
3293	1.46851	-0.0198364	
3294	1.46118	-0.0201416	
3295	1.45599	-0.0236511	
3296	1.44928	-0.0236511	
3297	1.44165	-0.0221252	
3298	1.43707	-0.0228882	
3299	1.4325	-0.0241089	
3300	1.427	-0.0230408	
3301	1.41815	-0.0244141	
3302	1.41327	-0.0244141	
3303	1.40778	-0.0242615	
3304	1.40076	-0.0242615	
3305	1.39343	-0.0244141	
3306	1.38824	-0.0262451	
3307	1.38123	-0.0267029	
3308	1.37756	-0.0267029	
3309	1.37115	-0.0268555	
3310	1.36566	-0.0268555	
3311	1.35895	-0.0265503	
3312	1.35376	-0.0268555	
3313	1.34857	-0.0265503	
3314	1.3443	-0.0250244	
3315	1.33881	-0.0267029	
3316	1.33209	-0.0288391	
3317	1.3266	-0.0285339	
3318	1.32385	-0.0279236	
3319	1.31836	-0.0286865	
3320	1.31195	-0.0292969	
3321	1.30951	-0.0285339	
3322	1.3028	-0.0267029	
3323	1.29974	-0.0265503	
3324	1.29333	-0.0265503	
3325	1.28967	-0.0260925	
3326	1.2851	-0.0265503	
3327	1.27808	-0.0260925	
3328	1.2735	-0.0244141	
3329	1.26831	-0.025177	
3330	1.26282	-0.0265503	
3331	1.25824	-0.0273132	
3332	1.25336	-0.0259399	
3333	1.25153	-0.0262451	
3334	1.24573	-0.0267029	
3335	1.24023	-0.0248718	
3336	1.23657	-0.0222778	
3337	1.23199	-0.0218201	
3338	1.22681	-0.0241089	
3339	1.22131	-0.0244141	
3340	1.21918	-0.0245667	
3341	1.21307	-0.0254822	
3342	1.2085	-0.0236511	
3343	1.20483	-0.0231934	
3344	1.20178	-0.0234985	
3345	1.1972	-0.025177	
3346	1.19232	-0.0268555	
3347	1.18713	-0.0286865	
3348	1.18713	-0.0289917	
3349	1.18042	-0.0291443	
3350	1.18011	-0.0291443	
3351	1.17584	-0.0280762	
3352	1.17035	-0.0253296	
3353	1.16516	-0.0213623	
3354	1.16516	-0.0218201	
3355	1.16333	-0.0241089	
3356	1.15967	-0.0242615	
3357	1.1554	-0.0242615	
3358	1.15234	-0.0242615	
3359	1.1499	-0.0241089	
3360	1.1499	-0.0242615	
3361	1.14807	-0.0250244	
3362	1.14532	-0.0274658	
3363	1.14532	-0.0285339	
3364	1.14136	-0.0270081	
3365	1.14044	-0.0265503	
3366	1.14014	-0.0288391	
3367	1.138	-0.0292969	
3368	1.13831	-0.0285339	
3369	1.13617	-0.0262451	
3370	1.13556	-0.022583	
3371	1.13525	-0.0241089	
3372	1.13342	-0.0244141	
3373	1.13068	-0.0241089	
3374	1.13312	-0.0228882	
3375	1.13251	-0.019989	
3376	1.13068	-0.0178528	
3377	1.13037	-0.0158691	
3378	1.13068	-0.0167847	
3379	1.13007	-0.0193787	
3380	1.13037	-0.0219727	
3381	1.13098	-0.0201416	
3382	1.13098	-0.0196838	
3383	1.13068	-0.0187683	
3384	1.13068	-0.0175476	
3385	1.13037	-0.0167847	
3386	1.13037	-0.017395	
3387	1.13037	-0.0186157	
3388	1.13037	-0.0192261	
3389	1.13037	-0.0215149	
3390	1.13037	-0.0218201	
3391	1.13037	-0.0213623	
3392	1.13007	-0.0189209	
3393	1.13037	-0.0163269	
3394	1.13068	-0.0126648	
3395	1.13464	-0.0138855	
3396	1.13556	-0.015564	
3397	1.13464	-0.0151062	
3398	1.13617	-0.0144958	
3399	1.13556	-0.0146484	
3400	1.13892	-0.0135803	
3401	1.14044	-0.010376	
3402	1.14075	-0.00854492	
3403	1.13983	-0.00534058	
3404	1.14502	-0.00457764	
3405	1.14471	-0.00198364	
3406	1.14563	-0.000305176	
3407	1.14532	0.00183105	
3408	1.14502	0.00366211	
3409	1.14929	0.00473022	
3410	1.15021	0.00518799	
3411	1.15021	0.0038147	
3412	1.1499	0.00274658	
3413	1.1496	0.00610352	
3414	1.15021	0.00717163	
3415	1.15082	0.010376	
3416	1.15265	0.0109863	
3417	1.15234	0.010376	
3418	1.15234	0.0120544	
3419	1.15295	0.0132751	
3420	1.15509	0.0146484	
3421	1.1554	0.0151062	
3422	1.15448	0.01297	
3423	1.15417	0.00976563	
3424	1.15479	0.00350952	
3425	1.15509	0.00228882	
3426	1.15448	0.00259399	
3427	1.15509	0.00213623	
3428	1.15448	0.00366211	
3429	1.1554	0.000915527	
3430	1.15509	-0.000762939	
3431	1.15448	-0.00228882	
3432	1.1554	-0.00244141	
3433	1.15479	-0.00228882	
3434	1.15479	-0.00137329	
3435	1.1554	0.000915527	
3436	1.15509	0.00228882	
3437	1.15326	0.0038147	
3438	1.15479	0.00274658	
3439	1.15509	0.00228882	
3440	1.15021	0.00167847	
3441	1.1496	0.000457764	
3442	1.1499	-0.00152588	
3443	1.1499	-0.00427246	
3444	1.14777	-0.00564575	
3445	1.1496	-0.00640869	
3446	1.14624	-0.00473022	
3447	1.14532	-0.00488281	
3448	1.14502	-0.0038147	
3449	1.14105	-0.00427246	
3450	1.14044	-0.00671387	
3451	1.13861	-0.00808716	
3452	1.13525	-0.0105286	
3453	1.13373	-0.0149536	
3454	1.13098	-0.0167847	
3455	1.13068	-0.0161743	
3456	1.12885	-0.0151062	
3457	1.12549	-0.014801	
3458	1.12549	-0.0170898	
3459	1.12335	-0.0218201	
3460	1.12091	-0.0241089	
3461	1.12061	-0.0216675	
3462	1.11664	-0.0195313	
3463	1.11511	-0.0202942	
3464	1.11115	-0.022583	
3465	1.11115	-0.027771	
3466	1.1087	-0.0361633	
3467	1.10565	-0.0419617	
3468	1.10138	-0.045929	
3469	1.10107	-0.0445557	
3470	1.10138	-0.0444031	
3471	1.0968	-0.0442505	
3472	1.09406	-0.043335	
3473	1.09192	-0.0434875	
3474	1.09131	-0.0422668	
3475	1.08734	-0.0382996	
3476	1.08307	-0.03479	
3477	1.07941	-0.0334167	
3478	1.07758	-0.0318909	
3479	1.07269	-0.0323486	
3480	1.0672	-0.0341797	
3481	1.0672	-0.0349426	
3482	1.06323	-0.0366211	
3483	1.05835	-0.0386047	
3484	1.05713	-0.0390625	
3485	1.05286	-0.0386047	
3486	1.04828	-0.0358582	
3487	1.0434	-0.0341797	
3488	1.0376	-0.0325012	
3489	1.03577	-0.0318909	
3490	1.03058	-0.0317383	
3491	1.02814	-0.0317383	
3492	1.02356	-0.0309753	
3493	1.02051	-0.0305176	
3494	1.01318	-0.0320435	
3495	1.01318	-0.0334167	
3496	1.00922	-0.0311279	
3497	1.00586	-0.0300598	
3498	1.00128	-0.0317383	
3499	0.997925	-0.0306702	
3500	0.996399	-0.0292969	
3501	0.991211	-0.0292969	
3502	0.985718	-0.0314331	
3503	0.983887	-0.0309753	
3504	0.981445	-0.0291443	
3505	0.978394	-0.0294495	
3506	0.974121	-0.0291443	
3507	0.971375	-0.0285339	
3508	0.969543	-0.0268555	
3509	0.964355	-0.027771	
3510	0.960999	-0.0300598	
3511	0.959473	-0.0335693	
3512	0.954895	-0.0354004	
3513	0.953979	-0.0325012	
3514	0.950317	-0.0288391	
3515	0.944824	-0.0248718	
3516	0.940247	-0.0227356	
3517	0.937195	-0.0241089	
3518	0.932312	-0.0242615	
3519	0.930176	-0.0242615	
3520	0.925903	-0.0227356	
3521	0.921936	-0.0201416	
3522	0.918274	-0.0169373	
3523	0.913086	-0.0128174	
3524	0.910645	-0.00778198	
3525	0.903931	0.00152588	
3526	0.898132	0.0105286	
3527	0.895996	0.0170898	
3528	0.888672	0.0228882	
3529	0.883789	0.0283813	
3530	0.880737	0.032196	
3531	0.874634	0.0367737	
3532	0.871277	0.0421143	
3533	0.864563	0.0509644	
3534	0.858459	0.0611877	
3535	0.854797	0.0712585	
3536	0.849304	0.0827026	
3537	0.846252	0.0935364	
3538	0.840149	0.102997	
3539	0.834656	0.113525	
3540	0.830078	0.12558	
3541	0.823975	0.136108	
3542	0.817566	0.145416	
3543	0.809937	0.151672	
3544	0.8078	0.158386	
3545	0.802917	0.161896	
3546	0.796204	0.163574	
3547	0.790405	0.15976	
3548	0.785217	0.159607	
3549	0.78186	0.164185	
3550	0.774231	0.165405	
3551	0.766602	0.160217	
3552	0.760803	0.15686	
3553	0.756226	0.153046	
3554	0.751038	0.142822	
3555	0.744629	0.128174	
3556	0.740967	0.114288	
3557	0.734863	0.104523	
3558	0.729065	0.0874329	
3559	0.724792	0.0614929	
3560	0.717468	0.0299072	
3561	0.71228	-0.00595093	
3562	0.706787	-0.0378418	
3563	0.701904	-0.0668335	
3564	0.697021	-0.0933838	
3565	0.693054	-0.110321	
3566	0.687866	-0.120087	
3567	0.682373	-0.127411	
3568	0.677795	-0.131683	
3569	0.672913	-0.131073	
3570	0.667725	-0.126953	
3571	0.663757	-0.121002	
3572	0.657654	-0.117798	
3573	0.653076	-0.121307	
3574	0.65094	-0.133209	
3575	0.646362	-0.147552	
3576	0.641174	-0.162964	
3577	0.638428	-0.179291	
3578	0.631409	-0.19577	
3579	0.626831	-0.211182	
3580	0.623474	-0.220795	
3581	0.621338	-0.214539	
3582	0.615234	-0.201569	
3583	0.611572	-0.182648	
3584	0.60791	-0.1651	
3585	0.602722	-0.143433	
3586	0.599365	-0.118866	
3587	0.594482	-0.0970459	
3588	0.5896	-0.075531	
3589	0.586853	-0.0584412	
3590	0.583191	-0.0454712	
3591	0.578308	-0.0325012	
3592	0.572205	-0.0238037	
3593	0.567932	-0.0167847	
3594	0.565491	-0.0149536	
3595	0.560913	-0.0175476	
3596	0.558167	-0.0202942	
3597	0.553589	-0.0210571	
3598	0.548401	-0.0189209	
3599	0.543213	-0.0169373	
3600	0.540161	-0.0154114	
3601	0.535889	-0.0166321	
3602	0.531006	-0.0164795	
3603	0.528564	-0.0137329	
3604	0.523376	-0.0143433	
3605	0.518799	-0.017395	
3606	0.515747	-0.0186157	
3607	0.511475	-0.0166321	
3608	0.504456	-0.0137329	
3609	0.499573	-0.012207	
3610	0.491943	-0.0144958	
3611	0.488892	-0.014801	
3612	0.484009	-0.0140381	
3613	0.479126	-0.010376	
3614	0.474548	-0.00900269	
3615	0.469971	-0.00656128	
3616	0.463867	-0.00701904	
3617	0.458069	-0.0062561	
3618	0.452576	-0.00808716	
3619	0.447998	-0.00946045	
3620	0.442505	-0.00976563	
3621	0.437622	-0.0100708	
3622	0.431213	-0.00991821	
3623	0.429382	-0.0106812	
3624	0.423584	-0.0117493	
3625	0.417786	-0.0132751	
3626	0.413513	-0.0143433	
3627	0.408936	-0.0157166	
3628	0.403442	-0.0154114	
3629	0.397949	-0.0167847	
3630	0.393677	-0.0177002	
3631	0.388794	-0.0187683	
3632	0.383606	-0.0170898	
3633	0.378418	-0.0169373	
3634	0.376282	-0.0190735	
3635	0.371704	-0.0193787	
3636	0.366821	-0.0195313	
3637	0.361938	-0.0189209	
3638	0.357361	-0.0177002	
3639	0.354614	-0.0184631	
3640	0.349121	-0.017395	
3641	0.346985	-0.0163269	
3642	0.340576	-0.0143433	
3643	0.334473	-0.0126648	
3644	0.329285	-0.0105286	
3645	0.326843	-0.00793457	
3646	0.320435	-0.00808716	
3647	0.317383	-0.0106812	
3648	0.313721	-0.0128174	
3649	0.308533	-0.0135803	
3650	0.305481	-0.0115967	
3651	0.300598	-0.0088501	
3652	0.296021	-0.00900269	
3653	0.293274	-0.00976563	
3654	0.289917	-0.00976563	
3655	0.284119	-0.00732422	
3656	0.279541	-0.00534058	
3657	0.276184	-0.00244141	
3658	0.270996	-0.00152588	
3659	0.266113	-0.00228882	
3660	0.263672	-0.00320435	
3661	0.259705	-0.00488281	
3662	0.254517	-0.00228882	
3663	0.249023	0.00427246	
3664	0.244446	0.00778198	
3665	0.240173	0.00991821	
3666	0.236816	0.00900269	
3667	0.231934	0.00747681	
3668	0.229492	0.00930786	
3669	0.229492	0.0106812	
3670	0.229492	0.012207	
3671	0.218201	0.0126648	
3672	0.205383	0.0167847	
3673	0.202637	0.0170898	
3674	0.195618	0.0190735	
3675	0.192871	0.0196838	
3676	0.188599	0.0202942	
3677	0.185547	0.022583	
3678	0.180664	0.0245667	
3679	0.176697	0.0247192	
3680	0.171204	0.0236511	
3681	0.166931	0.022583	
3682	0.161438	0.0253296	
3683	0.158386	0.0273132	
3684	0.154114	0.0285339	
3685	0.151672	0.0270081	
3686	0.148926	0.0268555	
3687	0.144958	0.0267029	
3688	0.141602	0.027771	
3689	0.137329	0.0292969	
3690	0.132446	0.0294495	
3691	0.129395	0.0300598	
3692	0.126953	0.030365	
3693	0.12207	0.0314331	
3694	0.119629	0.0334167	
3695	0.11322	0.0343323	
3696	0.107727	0.0343323	
3697	0.10437	0.0332642	
3698	0.0982666	0.0332642	
3699	0.0964355	0.0318909	
3700	0.0933838	0.0318909	
3701	0.088501	0.0337219	
3702	0.0854492	0.0340271	
3703	0.0823975	0.0341797	
3704	0.0796509	0.032959	
3705	0.0741577	0.0341797	
3706	0.0714111	0.0352478	
3707	0.0656128	0.0372314	
3708	0.0634766	0.0392151	
3709	0.0595093	0.0418091	
3710	0.0546265	0.0436401	
3711	0.0515747	0.0450134	
3712	0.0463867	0.0437927	
3713	0.0439453	0.0440979	
3714	0.039978	0.0436401	
3715	0.0366211	0.0436401	
3716	0.0335693	0.0465393	
3717	0.0296021	0.0506592	
3718	0.0265503	0.0537109	
3719	0.0241089	0.0566101	
3720	0.0201416	0.0584412	
3721	0.0167847	0.0585938	
3722	0.0152588	0.0582886	
3723	0.0100708	0.0601196	
3724	0.00488281	0.0608826	
3725	0.00274658	0.0611877	
3726	-0.00213623	0.0605774	
3727	-0.00701904	0.06073	
3728	-0.00976563	0.06073	
3729	-0.0140381	0.0637817	
3730	-0.0186157	0.0662231	
3731	-0.0216675	0.0680542	
3732	-0.0238037	0.070343	
3733	-0.0283813	0.0727844	
3734	-0.0311279	0.0743103	
3735	-0.0360107	0.0756836	
3736	-0.0390625	0.0756836	
3737	-0.0454712	0.0753784	
3738	-0.0485229	0.0756836	
3739	-0.0534058	0.0756836	
3740	-0.0561523	0.0778198	
3741	-0.0613403	0.0796509	
3742	-0.0637817	0.0805664	
3743	-0.0701904	0.0808716	
3744	-0.0732422	0.0796509	
3745	-0.0778198	0.0801086	
3746	-0.0823975	0.0822449	
3747	-0.0875854	0.0830078	
3748	-0.0927734	0.0808716	
3749	-0.0970459	0.0805664	
3750	-0.0997925	0.0804138	
3751	-0.103455	0.0813293	
3752	-0.107117	0.0827026	
3753	-0.111389	0.0822449	
3754	-0.113525	0.0796509	
3755	-0.116577	0.0779724	
3756	-0.121155	0.0779724	
3757	-0.12207	0.0784302	
3758	-0.122375	0.078125	
3759	-0.126648	0.0773621	
3760	-0.127258	0.0756836	
3761	-0.131836	0.0747681	
3762	-0.131836	0.0714111	
3763	-0.131836	0.0689697	
3764	-0.132446	0.0682068	
3765	-0.133057	0.0665283	
3766	-0.132751	0.0631714	
3767	-0.131836	0.0611877	
3768	-0.132446	0.0611877	
3769	-0.127869	0.0601196	
3770	-0.125122	0.0587463	
3771	-0.123901	0.0585938	
3772	-0.119934	0.0578308	
3773	-0.116272	0.0563049	
3774	-0.11261	0.0541687	
3775	-0.105896	0.0511169	
3776	-0.100403	0.0468445	
3777	-0.0939941	0.0444031	
3778	-0.0866699	0.0419617	
3779	-0.0769043	0.0398254	
3780	-0.0708008	0.0382996	
3781	-0.0601196	0.0361633	
3782	-0.0521851	0.0357056	
3783	-0.0408936	0.0337219	
3784	-0.0280762	0.0309753	
3785	-0.015564	0.0286865	
3786	-0.00396729	0.025177	
3787	0.00762939	0.0222778	
3788	0.0222778	0.0202942	
3789	0.0378418	0.0166321	
3790	0.0543213	0.01297	
3791	0.0689697	0.0125122	
3792	0.0857544	0.0111389	
3793	0.101013	0.0123596	
3794	0.118103	0.0114441	
3795	0.134277	0.00991821	
3796	0.153809	0.00976563	
3797	0.173035	0.00686646	
3798	0.193481	0.000915527	
3799	0.212708	-0.00289917	
3800	0.232849	-0.0038147	
3801	0.256042	-0.000610352	
3802	0.276489	0.00198364	
3803	0.299988	0.000610352	
3804	0.322876	-0.00457764	
3805	0.344543	-0.00991821	
3806	0.368347	-0.0140381	
3807	0.392761	-0.014801	
3808	0.41626	-0.0166321	
3809	0.4422	-0.0169373	
3810	0.464783	-0.0169373	
3811	0.491028	-0.0178528	
3812	0.515442	-0.0212097	
3813	0.538025	-0.0259399	
3814	0.563049	-0.0306702	
3815	0.591431	-0.0308228	
3816	0.614014	-0.0273132	
3817	0.637817	-0.0248718	
3818	0.662231	-0.0263977	
3819	0.688782	-0.0270081	
3820	0.714417	-0.0288391	
3821	0.738831	-0.0317383	
3822	0.763245	-0.0340271	
3823	0.787964	-0.0343323	
3824	0.812378	-0.0352478	
3825	0.836182	-0.0387573	
3826	0.861816	-0.0389099	
3827	0.88623	-0.0419617	
3828	0.91217	-0.0439453	
3829	0.935059	-0.0445557	
3830	0.960999	-0.0454712	
3831	0.985413	-0.0439453	
3832	1.00983	-0.0447083	
3833	1.03516	-0.0476074	
3834	1.05713	-0.0488281	
3835	1.08215	-0.0491333	
3836	1.10413	-0.0514221	
3837	1.12732	-0.0498962	
3838	1.14868	-0.0497437	
3839	1.17188	-0.0526428	
3840	1.19659	-0.0540161	
3841	1.21704	-0.0535583	
3842	1.24146	-0.0559998	
3843	1.26312	-0.0582886	
3844	1.2851	-0.0588989	
3845	1.30432	-0.0567627	
3846	1.3269	-0.0559998	
3847	1.34888	-0.0564575	
3848	1.36719	-0.0570679	
3849	1.38794	-0.0584412	
3850	1.40533	-0.06073	
3851	1.4267	-0.0590515	
3852	1.44623	-0.0590515	
3853	1.46393	-0.0576782	
3854	1.48224	-0.0564575	
3855	1.50055	-0.0566101	
3856	1.51886	-0.0566101	
3857	1.53534	-0.057373	
3858	1.55518	-0.0561523	
3859	1.57043	-0.0544739	
3860	1.58539	-0.0535583	
3861	1.60339	-0.0538635	
3862	1.61926	-0.0541687	
3863	1.63483	-0.0550842	
3864	1.65009	-0.0572205	
3865	1.66656	-0.0595093	
3866	1.6806	-0.0596619	
3867	1.69464	-0.0610352	
3868	1.70776	-0.0622559	
3869	1.72363	-0.0605774	
3870	1.73615	-0.0587463	
3871	1.7511	-0.0585938	
3872	1.76392	-0.058136	
3873	1.77612	-0.055542	
3874	1.78802	-0.0512695	
3875	1.79993	-0.0471497	
3876	1.81244	-0.0483704	
3877	1.82068	-0.0492859	
3878	1.83136	-0.0494385	
3879	1.84235	-0.0471497	
3880	1.85181	-0.0457764	
3881	1.86127	-0.042572	
3882	1.8692	-0.042572	
3883	1.87653	-0.0440979	
3884	1.88599	-0.0457764	
3885	1.89331	-0.0463867	
3886	1.90094	-0.045929	
3887	1.90643	-0.0442505	
3888	1.91528	-0.045166	
3889	1.92078	-0.0465393	
3890	1.92596	-0.0465393	
3891	1.93268	-0.0448608	
3892	1.93787	-0.0431824	
3893	1.94275	-0.0415039	
3894	1.94794	-0.0393677	
3895	1.95007	-0.0390625	
3896	1.95343	-0.0372314	
3897	1.95953	-0.0366211	
3898	1.96259	-0.0364685	
3899	1.96716	-0.0387573	
3900	1.96838	-0.0382996	
3901	1.97174	-0.0367737	
3902	1.9751	-0.0372314	
3903	1.97784	-0.0379944	
3904	1.97754	-0.0378418	
3905	1.98242	-0.0369263	
3906	1.98181	-0.0338745	
3907	1.98181	-0.0315857	
3908	1.98242	-0.0297546	
3909	1.98639	-0.0274658	
3910	1.98578	-0.0250244	
3911	1.98761	-0.0242615	
3912	1.98578	-0.0244141	
3913	1.98761	-0.025177	
3914	1.98578	-0.0247192	
3915	1.9873	-0.0224304	
3916	1.98486	-0.0216675	
3917	1.98364	-0.0212097	
3918	1.98303	-0.0195313	
3919	1.98273	-0.0201416	
3920	1.98242	-0.0219727	
3921	1.9809	-0.0213623	
3922	1.97815	-0.0195313	
3923	1.97723	-0.0195313	
3924	1.97479	-0.0202942	
3925	1.97266	-0.019989	
3926	1.97266	-0.0216675	
3927	1.96869	-0.0201416	
3928	1.96777	-0.0178528	
3929	1.96686	-0.0170898	
3930	1.9632	-0.0169373	
3931	1.96045	-0.0170898	
3932	1.95862	-0.0167847	
3933	1.95587	-0.0189209	
3934	1.95343	-0.0224304	
3935	1.94885	-0.0233459	
3936	1.9455	-0.0204468	
3937	1.94366	-0.0144958	
3938	1.93939	-0.0120544	
3939	1.93604	-0.0131226	
3940	1.93146	-0.0164795	
3941	1.92932	-0.0190735	
3942	1.92444	-0.0195313	
3943	1.92139	-0.0202942	
3944	1.9162	-0.0218201	
3945	1.91437	-0.0221252	
3946	1.91101	-0.0219727	
3947	1.90674	-0.0218201	
3948	1.90186	-0.0218201	
3949	1.89728	-0.0210571	
3950	1.89423	-0.0219727	
3951	1.89056	-0.0228882	
3952	1.88507	-0.0227356	
3953	1.88263	-0.0212097	
3954	1.87683	-0.0187683	
3955	1.875	-0.0172424	
3956	1.86859	-0.0160217	
3957	1.86554	-0.0178528	
3958	1.86096	-0.0195313	
3959	1.85638	-0.0195313	
3960	1.8515	-0.0202942	
3961	1.84662	-0.0216675	
3962	1.84143	-0.0212097	
3963	1.83838	-0.0198364	
3964	1.82892	-0.0172424	
3965	1.82556	-0.0170898	
3966	1.81946	-0.0170898	
3967	1.81396	-0.0192261	
3968	1.80969	-0.0198364	
3969	1.80389	-0.0204468	
3970	1.79718	-0.0195313	
3971	1.79382	-0.0166321	
3972	1.78467	-0.014801	
3973	1.78223	-0.017395	
3974	1.77521	-0.0193787	
3975	1.76788	-0.0187683	
3976	1.76025	-0.0144958	
3977	1.75537	-0.0112915	
3978	1.75079	-0.0115967	
3979	1.74103	-0.0140381	
3980	1.73584	-0.0154114	
3981	1.73004	-0.0167847	
3982	1.72577	-0.0169373	
3983	1.71906	-0.0169373	
3984	1.71173	-0.018158	
3985	1.70624	-0.0212097	
3986	1.70227	-0.0216675	
3987	1.69464	-0.020752	
3988	1.68671	-0.0177002	
3989	1.68152	-0.0151062	
3990	1.67175	-0.0134277	
3991	1.66656	-0.0141907	
3992	1.66138	-0.015564	
3993	1.65283	-0.0187683	
3994	1.64734	-0.0193787	
3995	1.63849	-0.0195313	
3996	1.633	-0.0175476	
3997	1.62628	-0.0160217	
3998	1.61896	-0.0166321	
3999	1.61072	-0.0146484	
4000	1.60431	-0.0154114	
4001	1.59363	-0.018158	
4002	1.58905	-0.0196838	
4003	1.58325	-0.0190735	
4004	1.57471	-0.0193787	
4005	1.56921	-0.0195313	
4006	1.56403	-0.0193787	
4007	1.55548	-0.0195313	
4008	1.54724	-0.0193787	
4009	1.54266	-0.0213623	
4010	1.53503	-0.0218201	
4011	1.53015	-0.0219727	
4012	1.52252	-0.0218201	
4013	1.5152	-0.0213623	
4014	1.5097	-0.0219727	
4015	1.50116	-0.0219727	
4016	1.49536	-0.0218201	
4017	1.48834	-0.020752	
4018	1.48346	-0.0218201	
4019	1.47583	-0.0231934	
4020	1.47095	-0.0250244	
4021	1.46545	-0.0276184	
4022	1.45935	-0.0273132	
4023	1.45508	-0.0247192	
4024	1.44928	-0.0253296	
4025	1.44257	-0.0276184	
4026	1.43951	-0.0299072	
4027	1.43219	-0.0315857	
4028	1.42639	-0.0291443	
4029	1.42181	-0.0242615	
4030	1.41571	-0.0201416	
4031	1.41022	-0.0175476	
4032	1.40717	-0.0192261	
4033	1.40259	-0.0213623	
4034	1.39557	-0.0239563	
4035	1.39221	-0.0274658	
4036	1.38794	-0.0292969	
4037	1.38336	-0.0268555	
4038	1.37787	-0.019989	
4039	1.37482	-0.0170898	
4040	1.37085	-0.0170898	
4041	1.36597	-0.0167847	
4042	1.36261	-0.0172424	
4043	1.36108	-0.0189209	
4044	1.35773	-0.0184631	
4045	1.35559	-0.0192261	
4046	1.35071	-0.0202942	
4047	1.34827	-0.0216675	
4048	1.34613	-0.0230408	
4049	1.34155	-0.0216675	
4050	1.34094	-0.0216675	
4051	1.33636	-0.0201416	
4052	1.33331	-0.0198364	
4053	1.33179	-0.0192261	
4054	1.32935	-0.0166321	
4055	1.3266	-0.0146484	
4056	1.32599	-0.015564	
4057	1.32477	-0.0175476	
4058	1.32141	-0.0195313	
4059	1.31897	-0.0193787	
4060	1.31683	-0.0198364	
4061	1.31409	-0.0195313	
4062	1.31195	-0.0193787	
4063	1.31134	-0.0187683	
4064	1.30951	-0.0169373	
4065	1.30707	-0.0172424	
4066	1.30646	-0.0158691	
4067	1.30432	-0.0166321	
4068	1.30188	-0.0161743	
4069	1.30157	-0.0146484	
4070	1.30188	-0.0175476	
4071	1.297	-0.0192261	
4072	1.29669	-0.0195313	
4073	1.297	-0.018158	
4074	1.297	-0.0193787	
4075	1.29303	-0.0192261	
4076	1.29272	-0.0187683	
4077	1.29181	-0.0170898	
4078	1.29303	-0.0149536	
4079	1.28998	-0.0164795	
4080	1.2915	-0.0180054	
4081	1.29028	-0.0201416	
4082	1.28815	-0.0218201	
4083	1.28693	-0.0216675	
4084	1.28754	-0.0222778	
4085	1.28693	-0.020752	
4086	1.28754	-0.0221252	
4087	1.28754	-0.0219727	
4088	1.28662	-0.0201416	
4089	1.28723	-0.0196838	
4090	1.28632	-0.0213623	
4091	1.28967	-0.0228882	
4092	1.28784	-0.0222778	
4093	1.2912	-0.0190735	
4094	1.28784	-0.0144958	
4095	1.28723	-0.0102234	
4096	1.28754	-0.00946045	
4097	1.29181	-0.00976563	
4098	1.29181	-0.0105286	
4099	1.29028	-0.0109863	
4100	1.29242	-0.00793457	
4101	1.29242	-0.00717163	
4102	1.29181	-0.00900269	
4103	1.29181	-0.00839233	
4104	1.29211	-0.00961304	
4105	1.29272	-0.00976563	
4106	1.2912	-0.0119019	
4107	1.29211	-0.01297	
4108	1.29211	-0.0126648	
4109	1.29456	-0.0111389	
4110	1.29242	-0.0100708	
4111	1.29608	-0.00778198	
4112	1.29456	-0.00640869	
4113	1.29639	-0.0038147	
4114	1.297	-0.00152588	
4115	1.2973	-0.000457764	
4116	1.29669	-0.00274658	
4117	1.29761	-0.0105286	
4118	1.2973	-0.018158	
4119	1.29669	-0.0187683	
4120	1.297	-0.0141907	
4121	1.29639	-0.00961304	
4122	1.29639	-0.00640869	
4123	1.297	-0.00411987	
4124	1.29761	-0.00244141	
4125	1.297	-0.00213623	
4126	1.297	0.000305176	
4127	1.2973	0.00320435	
4128	1.29425	0.00686646	
4129	1.29242	0.00823975	
4130	1.29303	0.00976563	
4131	1.29211	0.0119019	
4132	1.29181	0.0151062	
4133	1.28998	0.0180054	
4134	1.2912	0.0198364	
4135	1.28784	0.0195313	
4136	1.28754	0.020752	
4137	1.28723	0.0198364	
4138	1.28265	0.0187683	
4139	1.28235	0.018158	
4140	1.28418	0.0187683	
4141	1.28052	0.0157166	
4142	1.28204	0.0105286	
4143	1.27838	0.00778198	
4144	1.27686	0.00656128	
4145	1.27686	0.00488281	
4146	1.27533	0.00518799	
4147	1.2735	0.00610352	
4148	1.27228	0.00747681	
4149	1.27289	0.00839233	
4150	1.2677	0.00808716	
4151	1.2674	0.00457764	
4152	1.2677	0.00167847	
4153	1.26282	0.000305176	
4154	1.26282	0.00198364	
4155	1.26312	0.00305176	
4156	1.25824	0.00473022	
4157	1.25793	0.00671387	
4158	1.2558	0.00732422	
4159	1.25305	0.00762939	
4160	1.25275	0.00640869	
4161	1.24817	0.00488281	
4162	1.24786	0.00289917	
4163	1.24298	0.00457764	
4164	1.24359	0.00518799	
4165	1.23932	0.00656128	
4166	1.23566	0.00732422	
4167	1.23322	0.00549316	
4168	1.23108	0.00198364	
4169	1.22833	0.000152588	
4170	1.2265	0.00198364	
4171	1.22314	0.00305176	
4172	1.21948	0.00396729	
4173	1.21887	-0.000152588	
4174	1.2146	-0.00518799	
4175	1.21155	-0.00961304	
4176	1.20941	-0.00976563	
4177	1.20483	-0.0088501	
4178	1.20148	-0.00808716	
4179	1.19995	-0.0105286	
4180	1.19293	-0.0161743	
4181	1.18896	-0.0190735	
4182	1.18744	-0.0210571	
4183	1.18225	-0.0267029	
4184	1.1795	-0.0291443	
4185	1.17554	-0.0282288	
4186	1.17065	-0.0288391	
4187	1.16333	-0.0343323	
4188	1.15967	-0.0366211	
4189	1.1554	-0.0357056	
4190	1.15173	-0.0331116	
4191	1.14746	-0.0341797	
4192	1.14258	-0.0334167	
4193	1.13831	-0.0311279	
4194	1.13342	-0.0294495	
4195	1.12793	-0.0273132	
4196	1.12244	-0.0245667	
4197	1.11603	-0.0260925	
4198	1.11511	-0.0288391	
4199	1.1087	-0.0311279	
4200	1.10168	-0.0338745	
4201	1.09894	-0.0334167	
4202	1.09344	-0.0292969	
4203	1.08734	-0.0241089	
4204	1.08215	-0.0219727	
4205	1.07788	-0.0216675	
4206	1.07239	-0.0218201	
4207	1.06567	-0.0228882	
4208	1.06018	-0.0250244	
4209	1.0556	-0.0274658	
4210	1.0498	-0.0289917	
4211	1.0434	-0.0282288	
4212	1.03851	-0.0267029	
4213	1.03302	-0.0268555	
4214	1.02661	-0.0250244	
4215	1.02081	-0.0245667	
4216	1.01563	-0.0244141	
4217	1.01074	-0.0233459	
4218	1.00586	-0.022583	
4219	0.999146	-0.0209045	
4220	0.996094	-0.0195313	
4221	0.98938	-0.0204468	
4222	0.983582	-0.0213623	
4223	0.98175	-0.0216675	
4224	0.974731	-0.0221252	
4225	0.971069	-0.0219727	
4226	0.966797	-0.0228882	
4227	0.959473	-0.0242615	
4228	0.955505	-0.0244141	
4229	0.950928	-0.0242615	
4230	0.945435	-0.0244141	
4231	0.942383	-0.0233459	
4232	0.937195	-0.0227356	
4233	0.930786	-0.0227356	
4234	0.925598	-0.0204468	
4235	0.921021	-0.0218201	
4236	0.916138	-0.025177	
4237	0.908203	-0.0271606	
4238	0.90271	-0.0260925	
4239	0.898438	-0.0224304	
4240	0.892334	-0.0210571	
4241	0.887146	-0.019989	
4242	0.881348	-0.0187683	
4243	0.873718	-0.0172424	
4244	0.870667	-0.0161743	
4245	0.865784	-0.0115967	
4246	0.859375	-0.00442505	
4247	0.856323	0.0062561	
4248	0.849609	0.0175476	
4249	0.843506	0.0265503	
4250	0.839539	0.0300598	
4251	0.83374	0.0346375	
4252	0.826721	0.037384	
4253	0.822449	0.0424194	
4254	0.817566	0.0515747	
4255	0.812073	0.0616455	
4256	0.809021	0.0712585	
4257	0.804443	0.0817871	
4258	0.799866	0.0941467	
4259	0.794678	0.103455	
4260	0.789795	0.115814	
4261	0.785217	0.128021	
4262	0.780029	0.139771	
4263	0.775452	0.147705	
4264	0.768738	0.153198	
4265	0.768127	0.158691	
4266	0.761719	0.163422	
4267	0.758667	0.16571	
4268	0.754089	0.1651	
4269	0.74646	0.161591	
4270	0.743713	0.161591	
4271	0.739136	0.162964	
4272	0.734558	0.163269	
4273	0.733337	0.160217	
4274	0.72998	0.158386	
4275	0.724487	0.150146	
4276	0.71991	0.136414	
4277	0.714722	0.124054	
4278	0.710144	0.110779	
4279	0.706787	0.0909424	
4280	0.704346	0.0650024	
4281	0.700378	0.0341797	
4282	0.694275	-0.00366211	
4283	0.689392	-0.0386047	
4284	0.68573	-0.0689697	
4285	0.682373	-0.0914001	
4286	0.679932	-0.105591	
4287	0.677795	-0.114746	
4288	0.671082	-0.119934	
4289	0.66803	-0.123138	
4290	0.664978	-0.121765	
4291	0.6604	-0.120087	
4292	0.656128	-0.11795	
4293	0.652771	-0.116882	
4294	0.648499	-0.115814	
4295	0.645752	-0.123138	
4296	0.639343	-0.136414	
4297	0.635681	-0.155182	
4298	0.631714	-0.174255	
4299	0.626831	-0.190125	
4300	0.621948	-0.205994	
4301	0.617065	-0.215149	
4302	0.614319	-0.211487	
4303	0.6073	-0.200195	
4304	0.602112	-0.183105	
4305	0.59906	-0.166779	
4306	0.592957	-0.145721	
4307	0.588989	-0.12146	
4308	0.584717	-0.0965881	
4309	0.578003	-0.0740051	
4310	0.57312	-0.0552368	
4311	0.568237	-0.0434875	
4312	0.56366	-0.0340271	
4313	0.558472	-0.0259399	
4314	0.553284	-0.0212097	
4315	0.548096	-0.0172424	
4316	0.543213	-0.0151062	
4317	0.53833	-0.01297	
4318	0.533752	-0.0120544	
4319	0.530396	-0.0100708	
4320	0.526123	-0.00946045	
4321	0.518799	-0.00976563	
4322	0.515747	-0.0128174	
4323	0.510864	-0.0143433	
4324	0.506592	-0.0146484	
4325	0.501404	-0.0146484	
4326	0.495605	-0.0146484	
4327	0.49408	-0.0146484	
4328	0.487061	-0.0125122	
4329	0.484009	-0.0120544	
4330	0.480347	-0.012207	
4331	0.474854	-0.0106812	
4332	0.469055	-0.00808716	
4333	0.467224	-0.00473022	
4334	0.462036	-0.00442505	
4335	0.459595	-0.00457764	
4336	0.455322	-0.00686646	
4337	0.447998	-0.00732422	
4338	0.445557	-0.00701904	
4339	0.440674	-0.0088501	
4340	0.437622	-0.0105286	
4341	0.433044	-0.0128174	
4342	0.427551	-0.014801	
4343	0.422363	-0.0123596	
4344	0.415955	-0.0105286	
4345	0.412598	-0.00961304	
4346	0.40802	-0.0126648	
4347	0.403442	-0.0152588	
4348	0.39917	-0.0160217	
4349	0.393982	-0.0141907	
4350	0.388794	-0.012207	
4351	0.383911	-0.0102234	
4352	0.378418	-0.00961304	
4353	0.37323	-0.0106812	
4354	0.368958	-0.0119019	
4355	0.364075	-0.0114441	
4356	0.359192	-0.0105286	
4357	0.35675	-0.01297	
4358	0.348816	-0.0154114	
4359	0.346375	-0.0160217	
4360	0.342102	-0.0151062	
4361	0.33783	-0.0126648	
4362	0.329895	-0.0123596	
4363	0.327148	-0.0120544	
4364	0.324402	-0.012207	
4365	0.318298	-0.012207	
4366	0.31311	-0.012207	
4367	0.308838	-0.012207	
4368	0.304871	-0.010376	
4369	0.299377	-0.00762939	
4370	0.295715	-0.00549316	
4371	0.288696	-0.00488281	
4372	0.285645	-0.00427246	
4373	0.281372	-0.00473022	
4374	0.275879	-0.00473022	
4375	0.270691	-0.00305176	
4376	0.265808	-0.000457764	
4377	0.263367	0.00183105	
4378	0.259399	0.00274658	
4379	0.254822	0.00274658	
4380	0.249023	0.00244141	
4381	0.247192	0.00259399	
4382	0.244141	0.00259399	
4383	0.240173	0.00228882	
4384	0.232239	0.00427246	
4385	0.231018	0.00686646	
4386	0.226746	0.00732422	
4387	0.222168	0.00762939	
4388	0.21698	0.00915527	
4389	0.214844	0.0126648	
4390	0.210571	0.0157166	
4391	0.207214	0.0172424	
4392	0.200195	0.0169373	
4393	0.197144	0.0184631	
4394	0.192871	0.018158	
4395	0.188293	0.0201416	
4396	0.1828	0.022583	
4397	0.179749	0.0253296	
4398	0.175781	0.0263977	
4399	0.171204	0.0288391	
4400	0.166626	0.0299072	
4401	0.162354	0.0294495	
4402	0.158691	0.0311279	
4403	0.15625	0.0328064	
4404	0.152283	0.0308228	
4405	0.14679	0.0286865	
4406	0.142212	0.0270081	
4407	0.138245	0.0286865	
4408	0.132446	0.0326538	
4409	0.127563	0.0346375	
4410	0.124207	0.0340271	
4411	0.119629	0.0343323	
4412	0.114441	0.0341797	
4413	0.109253	0.0320435	
4414	0.106812	0.0318909	
4415	0.100098	0.0308228	
4416	0.0949097	0.0312805	
4417	0.0900269	0.0340271	
4418	0.0872803	0.0343323	
4419	0.0802612	0.0343323	
4420	0.0747681	0.0352478	
4421	0.0732422	0.0364685	
4422	0.0671387	0.0349426	
4423	0.06073	0.032196	
4424	0.0588989	0.0320435	
4425	0.0515747	0.032959	
4426	0.0466919	0.0358582	
4427	0.0418091	0.0389099	
4428	0.0363159	0.0410461	
4429	0.0311279	0.0413513	
4430	0.0274658	0.0396729	
4431	0.0219727	0.0390625	
4432	0.0192261	0.040741	
4433	0.012207	0.043335	
4434	0.00946045	0.0457764	
4435	0.00518799	0.0463867	
4436	0.000610352	0.0462341	
4437	-0.00427246	0.0469971	
4438	-0.00915527	0.0515747	
4439	-0.0140381	0.0544739	
4440	-0.0192261	0.0559998	
4441	-0.0216675	0.0570679	
4442	-0.0247192	0.0611877	
4443	-0.0289917	0.0653076	
4444	-0.0335693	0.0648499	
4445	-0.0390625	0.0630188	
4446	-0.0415039	0.0611877	
4447	-0.0473022	0.0614929	
4448	-0.0497437	0.0653076	
4449	-0.0552368	0.0695801	
4450	-0.0585938	0.0708008	
4451	-0.0628662	0.0708008	
4452	-0.0674438	0.0708008	
4453	-0.0726318	0.0726318	
4454	-0.0778198	0.0732422	
4455	-0.0784302	0.0759888	
4456	-0.0830078	0.0785828	
4457	-0.0872803	0.083313	
4458	-0.0927734	0.0854492	
4459	-0.0961304	0.0865173	
4460	-0.0997925	0.087738	
4461	-0.103455	0.0856018	
4462	-0.109558	0.0852966	
4463	-0.11322	0.0875854	
4464	-0.116577	0.0878906	
4465	-0.12085	0.0897217	
4466	-0.124512	0.0888062	
4467	-0.129395	0.0878906	
4468	-0.134277	0.0854492	
4469	-0.137329	0.0854492	
4470	-0.141296	0.0881958	
4471	-0.145874	0.0912476	
4472	-0.151062	0.0901794	
4473	-0.153809	0.0892639	
4474	-0.158081	0.0894165	
4475	-0.161438	0.0878906	
4476	-0.16449	0.0889587	
4477	-0.166016	0.0898743	
4478	-0.170593	0.0901794	
4479	-0.171509	0.0891113	
4480	-0.171509	0.0881958	
4481	-0.175476	0.087738	
4482	-0.175476	0.0878906	
4483	-0.176392	0.085907	
4484	-0.175781	0.0836182	
4485	-0.176392	0.0817871	
4486	-0.176086	0.0805664	
4487	-0.176697	0.0794983	
4488	-0.176392	0.078125	
4489	-0.173645	0.0770569	
4490	-0.171509	0.0747681	
4491	-0.169373	0.0708008	
4492	-0.166626	0.0665283	
4493	-0.162964	0.0660706	
4494	-0.157471	0.0640869	
4495	-0.154724	0.0622559	
4496	-0.149231	0.0595093	
4497	-0.142822	0.0564575	
4498	-0.137329	0.0541687	
4499	-0.13031	0.0515747	
4500	-0.122986	0.0494385	
4501	-0.113525	0.0485229	
4502	-0.105591	0.0486755	
4503	-0.0967407	0.0439453	
4504	-0.0820923	0.0389099	
4505	-0.0708008	0.0367737	
4506	-0.0595093	0.0346375	
4507	-0.045166	0.0341797	
4508	-0.0326538	0.0331116	
4509	-0.0186157	0.0312805	
4510	-0.00366211	0.0291443	
4511	0.010376	0.0283813	
4512	0.027771	0.0239563	
4513	0.043335	0.0204468	
4514	0.0622559	0.0175476	
4515	0.0769043	0.0192261	
4516	0.0958252	0.0187683	
4517	0.113525	0.0164795	
4518	0.134277	0.0120544	
4519	0.154724	0.00930786	
4520	0.169983	0.00747681	
4521	0.192871	0.00732422	
4522	0.20874	0.00732422	
4523	0.232239	0.00442505	
4524	0.25238	-0.000762939	
4525	0.275269	-0.00534058	
4526	0.296021	-0.00701904	
4527	0.317078	-0.00839233	
4528	0.339966	-0.0112915	
4529	0.360107	-0.0164795	
4530	0.386963	-0.0189209	
4531	0.410156	-0.0178528	
4532	0.43396	-0.0158691	
4533	0.456543	-0.0172424	
4534	0.480652	-0.0170898	
4535	0.501709	-0.0170898	
4536	0.526123	-0.0198364	
4537	0.553284	-0.0222778	
4538	0.578613	-0.0227356	
4539	0.602722	-0.0239563	
4540	0.624695	-0.0253296	
4541	0.649109	-0.0267029	
4542	0.672913	-0.027771	
4543	0.697327	-0.0302124	
4544	0.721741	-0.0326538	
4545	0.746765	-0.0344849	
4546	0.773621	-0.0341797	
4547	0.79895	-0.035553	
4548	0.823975	-0.0343323	
4549	0.847473	-0.0349426	
4550	0.871887	-0.0386047	
4551	0.898438	-0.0411987	
4552	0.921021	-0.042572	
4553	0.947876	-0.0450134	
4554	0.974426	-0.0457764	
4555	0.996704	-0.0453186	
4556	1.02325	-0.0457764	
4557	1.04553	-0.0462341	
4558	1.07025	-0.0485229	
4559	1.09436	-0.0508118	
4560	1.11847	-0.0505066	
4561	1.14105	-0.0471497	
4562	1.16364	-0.0462341	
4563	1.18835	-0.04776	
4564	1.20819	-0.0491333	
4565	1.23199	-0.0497437	
4566	1.25153	-0.0512695	
4567	1.27502	-0.0515747	
4568	1.29639	-0.0515747	
4569	1.31592	-0.0511169	
4570	1.33453	-0.0543213	
4571	1.3559	-0.0559998	
4572	1.3739	-0.055542	
4573	1.39343	-0.0532532	
4574	1.41327	-0.0521851	
4575	1.43311	-0.0556946	
4576	1.44867	-0.0564575	
4577	1.4682	-0.055542	
4578	1.48651	-0.0547791	
4579	1.50269	-0.0566101	
4580	1.51794	-0.0564575	
4581	1.53595	-0.0563049	
4582	1.55121	-0.0567627	
4583	1.57013	-0.0598145	
4584	1.58325	-0.0590515	
4585	1.59698	-0.0585938	
4586	1.61346	-0.0605774	
4587	1.62628	-0.0613403	
4588	1.64124	-0.0593567	
4589	1.65588	-0.0587463	
4590	1.6684	-0.0585938	
4591	1.68335	-0.0558472	
4592	1.69525	-0.0527954	
4593	1.7099	-0.0523376	
4594	1.71997	-0.0549316	
4595	1.73218	-0.0550842	
4596	1.74408	-0.0537109	
4597	1.75415	-0.0538635	
4598	1.76636	-0.0540161	
4599	1.77643	-0.0523376	
4600	1.78589	-0.0463867	
4601	1.79474	-0.0453186	
4602	1.80298	-0.0463867	
4603	1.81335	-0.04776	
4604	1.82312	-0.0465393	
4605	1.83136	-0.0463867	
4606	1.83868	-0.0466919	
4607	1.8457	-0.0466919	
4608	1.85242	-0.0462341	
4609	1.86035	-0.0474548	
4610	1.86462	-0.04776	
4611	1.87225	-0.0466919	
4612	1.87744	-0.0468445	
4613	1.87927	-0.0474548	
4614	1.88416	-0.0480652	
4615	1.88904	-0.045929	
4616	1.89148	-0.0431824	
4617	1.89392	-0.0408936	
4618	1.8988	-0.0386047	
4619	1.89819	-0.0369263	
4620	1.90338	-0.0344849	
4621	1.9046	-0.0361633	
4622	1.90674	-0.0375366	
4623	1.90887	-0.0390625	
4624	1.90887	-0.040741	
4625	1.91406	-0.0393677	
4626	1.91467	-0.0363159	
4627	1.91681	-0.0344849	
4628	1.91742	-0.032196	
4629	1.91925	-0.0318909	
4630	1.91895	-0.0320435	
4631	1.91833	-0.0315857	
4632	1.91895	-0.0328064	
4633	1.91956	-0.0338745	
4634	1.91895	-0.0344849	
4635	1.91864	-0.0341797	
4636	1.91895	-0.0315857	
4637	1.9165	-0.0296021	
4638	1.91406	-0.0285339	
4639	1.91467	-0.0270081	
4640	1.91467	-0.0268555	
4641	1.91406	-0.0260925	
4642	1.9101	-0.0234985	
4643	1.90918	-0.0227356	
4644	1.90521	-0.0241089	
4645	1.90399	-0.0244141	
4646	1.90155	-0.0245667	
4647	1.8988	-0.0238037	
4648	1.89514	-0.0233459	
4649	1.89026	-0.0233459	
4650	1.8869	-0.0221252	
4651	1.88446	-0.0210571	
4652	1.88232	-0.020752	
4653	1.87988	-0.0195313	
4654	1.87531	-0.0195313	
4655	1.87103	-0.0195313	
4656	1.86707	-0.0195313	
4657	1.86554	-0.0201416	
4658	1.86035	-0.0227356	
4659	1.85699	-0.0247192	
4660	1.85577	-0.0256348	
4661	1.84875	-0.0250244	
4662	1.84631	-0.0236511	
4663	1.84113	-0.0222778	
4664	1.83807	-0.0216675	
4665	1.83624	-0.0219727	
4666	1.83136	-0.0209045	
4667	1.82648	-0.0241089	
4668	1.82312	-0.0273132	
4669	1.81671	-0.0286865	
4670	1.81335	-0.0268555	
4671	1.81061	-0.0262451	
4672	1.80847	-0.0245667	
4673	1.80389	-0.0216675	
4674	1.79962	-0.0177002	
4675	1.79626	-0.0149536	
4676	1.78925	-0.0126648	
4677	1.78802	-0.010376	
4678	1.78223	-0.00793457	
4679	1.77734	-0.00839233	
4680	1.77399	-0.00640869	
4681	1.76788	-0.00411987	
4682	1.76514	0.000457764	
4683	1.76025	0.00259399	
4684	1.75293	0.000610352	
4685	1.75049	-0.000610352	
4686	1.74408	-0.00152588	
4687	1.74072	0	
4688	1.73492	0	
4689	1.72913	-0.000152588	
4690	1.72516	0.000305176	
4691	1.72058	-0.000610352	
4692	1.71356	-0.00244141	
4693	1.70837	-0.00244141	
4694	1.70532	-0.00228882	
4695	1.69647	-0.00183105	
4696	1.69128	0	
4697	1.6861	0	
4698	1.68121	-0.000152588	
4699	1.67694	0	
4700	1.66962	-0.000305176	
4701	1.66229	-0.00198364	
4702	1.65741	-0.00427246	
4703	1.64734	-0.00473022	
4704	1.64215	-0.00579834	
4705	1.63574	-0.00732422	
4706	1.62781	-0.00930786	
4707	1.62018	-0.00900269	
4708	1.61346	-0.0062561	
4709	1.60583	-0.00473022	
4710	1.60095	-0.00579834	
4711	1.59332	-0.00717163	
4712	1.58875	-0.00717163	
4713	1.58112	-0.00473022	
4714	1.57379	-0.000762939	
4715	1.56464	0	
4716	1.55884	0.000915527	
4717	1.55243	0	
4718	1.5448	-0.000457764	
4719	1.53931	-0.00305176	
4720	1.53015	-0.00686646	
4721	1.52435	-0.00671387	
4722	1.51794	-0.00488281	
4723	1.51062	-0.00274658	
4724	1.50299	-0.00442505	
4725	1.49536	-0.00473022	
4726	1.49048	-0.00488281	
4727	1.48102	-0.00579834	
4728	1.47552	-0.00534058	
4729	1.46912	-0.00473022	
4730	1.46088	-0.00473022	
4731	1.45447	-0.00488281	
4732	1.44684	-0.00488281	
4733	1.4389	-0.00579834	
4734	1.43188	-0.00686646	
4735	1.42426	-0.00808716	
4736	1.41785	-0.0102234	
4737	1.41022	-0.0117493	
4738	1.40533	-0.0102234	
4739	1.39771	-0.0126648	
4740	1.38794	-0.0128174	
4741	1.38214	-0.010376	
4742	1.37573	-0.0109863	
4743	1.37085	-0.0131226	
4744	1.36353	-0.0144958	
4745	1.35651	-0.0144958	
4746	1.34949	-0.0128174	
4747	1.34369	-0.0120544	
4748	1.33667	-0.0123596	
4749	1.32965	-0.0141907	
4750	1.32385	-0.0146484	
4751	1.31714	-0.0137329	
4752	1.31256	-0.0166321	
4753	1.30371	-0.0192261	
4754	1.29974	-0.0193787	
4755	1.29486	-0.017395	
4756	1.28845	-0.0170898	
4757	1.28052	-0.0161743	
4758	1.27472	-0.0117493	
4759	1.27045	-0.00976563	
4760	1.26465	-0.0100708	
4761	1.25824	-0.0135803	
4762	1.25366	-0.0175476	
4763	1.24878	-0.0164795	
4764	1.24451	-0.0146484	
4765	1.24023	-0.014801	
4766	1.23535	-0.0137329	
4767	1.23352	-0.0128174	
4768	1.22925	-0.0100708	
4769	1.22467	-0.00961304	
4770	1.22192	-0.0115967	
4771	1.21948	-0.0138855	
4772	1.21399	-0.0149536	
4773	1.21368	-0.0149536	
4774	1.20941	-0.0138855	
4775	1.20758	-0.010376	
4776	1.20575	-0.00778198	
4777	1.2027	-0.00808716	
4778	1.19965	-0.00793457	
4779	1.19873	-0.00747681	
4780	1.19781	-0.00564575	
4781	1.19415	-0.00396729	
4782	1.19415	-0.00488281	
4783	1.19415	-0.00473022	
4784	1.18988	-0.00457764	
4785	1.18866	-0.00579834	
4786	1.18744	-0.00808716	
4787	1.18896	-0.0125122	
4788	1.18958	-0.0123596	
4789	1.18652	-0.0112915	
4790	1.18408	-0.00869751	
4791	1.18439	-0.00686646	
4792	1.18713	-0.00396729	
4793	1.185	-0.00167847	
4794	1.18469	-0.000152588	
4795	1.18195	-0.000305176	
4796	1.18225	0.00106812	
4797	1.18011	0.000152588	
4798	1.1792	-0.00228882	
4799	1.18011	-0.00244141	
4800	1.1795	-0.00244141	
4801	1.1792	-0.00427246	
4802	1.17981	-0.00564575	
4803	1.17523	-0.00808716	
4804	1.17737	-0.00915527	
4805	1.17493	-0.00686646	
4806	1.17432	-0.0050354	
4807	1.17523	-0.00473022	
4808	1.17401	-0.00457764	
4809	1.17493	-0.00595093	
4810	1.17493	-0.00701904	
4811	1.17493	-0.00701904	
4812	1.17615	-0.00488281	
4813	1.17584	-0.00167847	
4814	1.17493	0	
4815	1.17432	0	
4816	1.17645	-0.000915527	
4817	1.17737	-0.00411987	
4818	1.17645	-0.00473022	
4819	1.17889	-0.00274658	
4820	1.17798	-0.000610352	
4821	1.17981	-0.000915527	
4822	1.1795	-0.00244141	
4823	1.1795	-0.00137329	
4824	1.1795	0	
4825	1.18011	0	
4826	1.17981	0	
4827	1.17889	-0.00167847	
4828	1.17981	-0.00213623	
4829	1.17981	-0.00167847	
4830	1.18011	0.00106812	
4831	1.17981	0.00228882	
4832	1.1792	0.00488281	
4833	1.17981	0.00717163	
4834	1.1795	0.00732422	
4835	1.18042	0.00534058	
4836	1.1792	0.00289917	
