recording_3_ecgppg_biopac_movement.acq
Graph Created on: 2025-05-22 11:33:37.664
Recording on: 2025-05-22 12:03:22.265
1 msec/sample
2 channels
PPG, X, PPGED-R
Volts
ECG, Y, RSPEC-R
mV
milliSec	CH1	CH13	
	218923 samples	218923 samples	
0	-2.00562	0.109406	
1	-2.0108	0.10498	
2	-2.01324	0.101929	
3	-2.01782	0.0994873	
4	-2.02301	0.0958252	
5	-2.02393	0.0952148	
6	-2.02728	0.0970459	
7	-2.03186	0.0976563	
8	-2.03522	0.0949097	
9	-2.03796	0.0909424	
10	-2.04041	0.0880432	
11	-2.04193	0.0880432	
12	-2.04651	0.0857544	
13	-2.05048	0.0823975	
14	-2.05231	0.080719	
15	-2.05292	0.0805664	
16	-2.05536	0.0805664	
17	-2.05963	0.0794983	
18	-2.05811	0.0776672	
19	-2.06024	0.0740051	
20	-2.06024	0.0712585	
21	-2.06482	0.0732422	
22	-2.06512	0.0733948	
23	-2.06573	0.0724792	
24	-2.06818	0.0663757	
25	-2.06543	0.0628662	
26	-2.06848	0.0605774	
27	-2.06573	0.0585938	
28	-2.06512	0.0575256	
29	-2.06543	0.0561523	
30	-2.06573	0.0541687	
31	-2.06482	0.0524902	
32	-2.06116	0.052948	
33	-2.05994	0.0512695	
34	-2.05963	0.0514221	
35	-2.05597	0.0514221	
36	-2.05658	0.0488281	
37	-2.05475	0.0453186	
38	-2.04865	0.0411987	
39	-2.04681	0.0395203	
40	-2.04254	0.0364685	
41	-2.03979	0.0317383	
42	-2.03308	0.0247192	
43	-2.03156	0.0202942	
44	-2.02637	0.0196838	
45	-2.01813	0.0198364	
46	-2.01569	0.0187683	
47	-2.0108	0.0146484	
48	-2.00378	0.0119019	
49	-1.99707	0.0100708	
50	-1.99097	0.00991821	
51	-1.98334	0.0100708	
52	-1.97662	0.0117493	
53	-1.96869	0.0141907	
54	-1.95923	0.0164795	
55	-1.95251	0.0143433	
56	-1.94366	0.00991821	
57	-1.93359	0.00579834	
58	-1.92413	0.00244141	
59	-1.91406	-0.00167847	
60	-1.90399	-0.00732422	
61	-1.89484	-0.0120544	
62	-1.8808	-0.0166321	
63	-1.87317	-0.0151062	
64	-1.86096	-0.0143433	
65	-1.85059	-0.0154114	
66	-1.8396	-0.0216675	
67	-1.82587	-0.0242615	
68	-1.8161	-0.0234985	
69	-1.80664	-0.0193787	
70	-1.79321	-0.0170898	
71	-1.78284	-0.0151062	
72	-1.7688	-0.0151062	
73	-1.75568	-0.0161743	
74	-1.74408	-0.0144958	
75	-1.73004	-0.0137329	
76	-1.71906	-0.0125122	
77	-1.70746	-0.012207	
78	-1.69464	-0.012207	
79	-1.67999	-0.0128174	
80	-1.66901	-0.0172424	
81	-1.65222	-0.0242615	
82	-1.64215	-0.0311279	
83	-1.6272	-0.0341797	
84	-1.61194	-0.0338745	
85	-1.59729	-0.0335693	
86	-1.58325	-0.0318909	
87	-1.56982	-0.0317383	
88	-1.5564	-0.0318909	
89	-1.54175	-0.0308228	
90	-1.5271	-0.0276184	
91	-1.51245	-0.0230408	
92	-1.49719	-0.019989	
93	-1.48346	-0.0212097	
94	-1.46881	-0.0239563	
95	-1.45416	-0.0224304	
96	-1.44012	-0.0221252	
97	-1.42456	-0.0227356	
98	-1.41174	-0.0254822	
99	-1.3974	-0.0273132	
100	-1.38184	-0.0311279	
101	-1.36719	-0.0306702	
102	-1.35315	-0.0296021	
103	-1.33728	-0.0302124	
104	-1.32263	-0.0325012	
105	-1.30768	-0.0328064	
106	-1.29333	-0.0296021	
107	-1.2793	-0.0265503	
108	-1.26404	-0.0250244	
109	-1.25183	-0.0283813	
110	-1.23779	-0.0306702	
111	-1.22314	-0.0283813	
112	-1.20972	-0.0300598	
113	-1.20026	-0.0346375	
114	-1.18622	-0.0357056	
115	-1.17157	-0.0341797	
116	-1.15662	-0.0312805	
117	-1.14502	-0.0268555	
118	-1.13159	-0.0236511	
119	-1.12	-0.0222778	
120	-1.10748	-0.0216675	
121	-1.09497	-0.0218201	
122	-1.08612	-0.022583	
123	-1.07239	-0.0248718	
124	-1.0614	-0.0257874	
125	-1.05072	-0.0247192	
126	-1.03821	-0.0247192	
127	-1.02509	-0.0250244	
128	-1.01379	-0.0267029	
129	-1.00433	-0.0270081	
130	-0.992737	-0.0286865	
131	-0.98175	-0.0291443	
132	-0.970154	-0.0291443	
133	-0.959778	-0.0292969	
134	-0.949707	-0.0288391	
135	-0.942993	-0.0274658	
136	-0.930481	-0.0250244	
137	-0.920715	-0.0210571	
138	-0.910339	-0.0187683	
139	-0.905151	-0.0184631	
140	-0.896606	-0.0170898	
141	-0.886536	-0.0172424	
142	-0.880127	-0.0186157	
143	-0.871887	-0.0166321	
144	-0.864563	-0.0137329	
145	-0.855408	-0.0105286	
146	-0.848083	-0.00854492	
147	-0.84198	-0.0102234	
148	-0.83252	-0.0120544	
149	-0.826721	-0.0120544	
150	-0.817566	-0.0120544	
151	-0.811462	-0.0131226	
152	-0.803223	-0.0141907	
153	-0.797424	-0.0177002	
154	-0.789795	-0.0221252	
155	-0.783691	-0.0250244	
156	-0.778503	-0.0265503	
157	-0.772705	-0.0276184	
158	-0.76355	-0.0300598	
159	-0.757751	-0.0296021	
160	-0.752869	-0.0273132	
161	-0.748596	-0.0267029	
162	-0.740967	-0.0296021	
163	-0.734253	-0.0317383	
164	-0.728455	-0.0331116	
165	-0.724182	-0.0297546	
166	-0.718384	-0.0263977	
167	-0.710449	-0.0236511	
168	-0.706482	-0.0198364	
169	-0.700989	-0.0193787	
170	-0.696411	-0.0213623	
171	-0.692139	-0.0213623	
172	-0.68634	-0.0196838	
173	-0.681458	-0.0183105	
174	-0.67627	-0.0169373	
175	-0.671692	-0.0170898	
176	-0.669556	-0.0170898	
177	-0.666504	-0.0177002	
178	-0.664673	-0.019989	
179	-0.6604	-0.0218201	
180	-0.654297	-0.0228882	
181	-0.65094	-0.0222778	
182	-0.647583	-0.0222778	
183	-0.645752	-0.0230408	
184	-0.64209	-0.0250244	
185	-0.641174	-0.0221252	
186	-0.637512	-0.0169373	
187	-0.632324	-0.0100708	
188	-0.629883	-0.00457764	
189	-0.626526	-0.00244141	
190	-0.625305	-0.00564575	
191	-0.622253	-0.012207	
192	-0.617981	-0.0135803	
193	-0.617065	-0.0114441	
194	-0.61676	-0.00686646	
195	-0.613098	-0.00396729	
196	-0.611877	-0.00244141	
197	-0.609436	-0.00488281	
198	-0.608215	-0.0100708	
199	-0.6073	-0.0144958	
200	-0.607605	-0.0170898	
201	-0.606995	-0.0170898	
202	-0.607605	-0.0163269	
203	-0.606995	-0.0146484	
204	-0.6073	-0.0154114	
205	-0.606384	-0.0178528	
206	-0.606689	-0.0195313	
207	-0.6073	-0.0186157	
208	-0.609436	-0.0172424	
209	-0.610962	-0.0172424	
210	-0.611877	-0.0190735	
211	-0.611877	-0.0192261	
212	-0.612183	-0.0195313	
213	-0.614929	-0.0164795	
214	-0.617065	-0.0149536	
215	-0.617371	-0.0146484	
216	-0.617371	-0.0134277	
217	-0.617981	-0.0144958	
218	-0.619202	-0.0126648	
219	-0.621338	-0.0119019	
220	-0.621643	-0.0119019	
221	-0.625305	-0.010376	
222	-0.626526	-0.00991821	
223	-0.626221	-0.00778198	
224	-0.629883	-0.00473022	
225	-0.631104	-0.00167847	
226	-0.632629	-0.000762939	
227	-0.635376	-0.00228882	
228	-0.635986	-0.00137329	
229	-0.639648	-0.00244141	
230	-0.641785	-0.00518799	
231	-0.6427	-0.00991821	
232	-0.645752	-0.0128174	
233	-0.646667	-0.0143433	
234	-0.650024	-0.0152588	
235	-0.650024	-0.0158691	
236	-0.650635	-0.01297	
237	-0.652771	-0.0128174	
238	-0.654907	-0.0164795	
239	-0.655212	-0.0187683	
240	-0.656128	-0.0218201	
241	-0.657349	-0.0218201	
242	-0.660706	-0.0210571	
243	-0.663452	-0.0186157	
244	-0.664063	-0.0178528	
245	-0.665588	-0.0192261	
246	-0.665894	-0.0195313	
247	-0.665588	-0.017395	
248	-0.669861	-0.0146484	
249	-0.670166	-0.0167847	
250	-0.670776	-0.0190735	
251	-0.674744	-0.0195313	
252	-0.675354	-0.0184631	
253	-0.675659	-0.0180054	
254	-0.67627	-0.0193787	
255	-0.680847	-0.0192261	
256	-0.679932	-0.0193787	
257	-0.681152	-0.0196838	
258	-0.685425	-0.0209045	
259	-0.68512	-0.0186157	
260	-0.688782	-0.0167847	
261	-0.690308	-0.0166321	
262	-0.69397	-0.0195313	
263	-0.697327	-0.0210571	
264	-0.696411	-0.0149536	
265	-0.699768	-0.0141907	
266	-0.700989	-0.0154114	
267	-0.704651	-0.0169373	
268	-0.706787	-0.0167847	
269	-0.708618	-0.0193787	
270	-0.710144	-0.0187683	
271	-0.713501	-0.0178528	
272	-0.715027	-0.0202942	
273	-0.717773	-0.0265503	
274	-0.718994	-0.0305176	
275	-0.723572	-0.0263977	
276	-0.724792	-0.0247192	
277	-0.725708	-0.025177	
278	-0.72937	-0.0276184	
279	-0.732422	-0.0273132	
280	-0.733948	-0.0259399	
281	-0.735474	-0.0247192	
282	-0.738525	-0.0234985	
283	-0.740356	-0.0210571	
284	-0.743408	-0.0167847	
285	-0.744324	-0.0138855	
286	-0.74585	-0.0108337	
287	-0.748291	-0.0111389	
288	-0.749817	-0.00915527	
289	-0.753479	-0.0062561	
290	-0.754089	-0.00473022	
291	-0.7547	-0.00473022	
292	-0.756531	-0.00701904	
293	-0.759583	-0.00610352	
294	-0.763245	-0.00793457	
295	-0.763245	-0.0102234	
296	-0.76355	-0.012207	
297	-0.767822	-0.0109863	
298	-0.769043	-0.0120544	
299	-0.769958	-0.012207	
300	-0.774231	-0.0128174	
301	-0.773621	-0.0163269	
302	-0.777283	-0.0172424	
303	-0.778503	-0.0170898	
304	-0.778503	-0.0169373	
305	-0.78186	-0.0172424	
306	-0.780945	-0.0170898	
307	-0.783081	-0.0180054	
308	-0.784302	-0.0204468	
309	-0.787964	-0.0215149	
310	-0.787659	-0.0215149	
311	-0.78949	-0.0238037	
312	-0.792847	-0.0250244	
313	-0.792847	-0.0260925	
314	-0.792847	-0.0238037	
315	-0.792847	-0.0184631	
316	-0.795898	-0.0120544	
317	-0.796814	-0.00762939	
318	-0.798645	-0.00549316	
319	-0.797729	-0.00442505	
320	-0.800781	-0.00305176	
321	-0.801392	0.000457764	
322	-0.803833	0.00305176	
323	-0.803223	0.00457764	
324	-0.803528	0.00762939	
325	-0.807495	0.0126648	
326	-0.80719	0.0152588	
327	-0.8078	0.0163269	
328	-0.807495	0.0132751	
329	-0.811462	0.0102234	
330	-0.812378	0.0117493	
331	-0.812073	0.0141907	
332	-0.816345	0.017395	
333	-0.817566	0.0193787	
334	-0.817871	0.0177002	
335	-0.816956	0.0135803	
336	-0.820007	0.0117493	
337	-0.818787	0.00900269	
338	-0.819702	0.00869751	
339	-0.821228	0.00549316	
340	-0.822449	0.00320435	
341	-0.826111	0.000457764	
342	-0.827637	-0.00183105	
343	-0.827026	-0.00213623	
344	-0.827026	-0.00228882	
345	-0.827026	-0.00427246	
346	-0.829773	-0.00671387	
347	-0.829773	-0.00656128	
348	-0.831604	-0.00106812	
349	-0.829163	0.00518799	
350	-0.828857	0.00946045	
351	-0.831909	0.0108337	
352	-0.829773	0.0128174	
353	-0.830383	0.0137329	
354	-0.827637	0.00976563	
355	-0.826721	0.00457764	
356	-0.825806	0.000762939	
357	-0.823059	-0.000915527	
358	-0.822144	-0.00106812	
359	-0.821228	-0.00213623	
360	-0.81665	-0.00244141	
361	-0.81604	-0.00244141	
362	-0.815125	-0.00534058	
363	-0.812683	-0.00701904	
364	-0.812683	-0.00564575	
365	-0.810242	-0.00137329	
366	-0.811157	-0.000915527	
367	-0.808105	-0.00595093	
368	-0.808105	-0.0128174	
369	-0.804138	-0.0146484	
370	-0.802612	-0.0157166	
371	-0.803223	-0.0154114	
372	-0.802002	-0.0169373	
373	-0.797729	-0.018158	
374	-0.797729	-0.0195313	
375	-0.79834	-0.0195313	
376	-0.798035	-0.0192261	
377	-0.794067	-0.0177002	
378	-0.793152	-0.0152588	
379	-0.793152	-0.0144958	
380	-0.793152	-0.014801	
381	-0.788574	-0.0204468	
382	-0.791626	-0.0286865	
383	-0.792542	-0.0375366	
384	-0.790405	-0.0439453	
385	-0.792236	-0.0465393	
386	-0.788879	-0.0419617	
387	-0.787659	-0.0384521	
388	-0.787659	-0.0369263	
389	-0.791016	-0.03479	
390	-0.787659	-0.0325012	
391	-0.791626	-0.0326538	
392	-0.789795	-0.0363159	
393	-0.792847	-0.0375366	
394	-0.793152	-0.0360107	
395	-0.792847	-0.0326538	
396	-0.794067	-0.0326538	
397	-0.797729	-0.0349426	
398	-0.797424	-0.0366211	
399	-0.798645	-0.0366211	
400	-0.798645	-0.0364685	
401	-0.802002	-0.0384521	
402	-0.802307	-0.0402832	
403	-0.802612	-0.0392151	
404	-0.801697	-0.038147	
405	-0.802307	-0.0350952	
406	-0.803223	-0.0340271	
407	-0.802307	-0.0350952	
408	-0.804749	-0.0367737	
409	-0.804138	-0.0395203	
410	-0.80719	-0.0422668	
411	-0.8078	-0.043335	
412	-0.807495	-0.0418091	
413	-0.807495	-0.0422668	
414	-0.8078	-0.0439453	
415	-0.807495	-0.0421143	
416	-0.803528	-0.0396729	
417	-0.802612	-0.0393677	
418	-0.805054	-0.0393677	
419	-0.803223	-0.0393677	
420	-0.802002	-0.0370789	
421	-0.802307	-0.0340271	
422	-0.802002	-0.0297546	
423	-0.803528	-0.0292969	
424	-0.803223	-0.0265503	
425	-0.804138	-0.0218201	
426	-0.806274	-0.0177002	
427	-0.80658	-0.0189209	
428	-0.807495	-0.0215149	
429	-0.809021	-0.0230408	
430	-0.811768	-0.0244141	
431	-0.812683	-0.0242615	
432	-0.812683	-0.0250244	
433	-0.816345	-0.0274658	
434	-0.817566	-0.0318909	
435	-0.816956	-0.0357056	
436	-0.817261	-0.0335693	
437	-0.821228	-0.0286865	
438	-0.822144	-0.0250244	
439	-0.823669	-0.025177	
440	-0.827026	-0.0283813	
441	-0.827332	-0.0305176	
442	-0.827332	-0.0267029	
443	-0.83252	-0.022583	
444	-0.836487	-0.0210571	
445	-0.837097	-0.0160217	
446	-0.836487	-0.00793457	
447	-0.838623	0.00305176	
448	-0.84259	0.012207	
449	-0.846863	0.0183105	
450	-0.846558	0.0254822	
451	-0.85022	0.0338745	
452	-0.851135	0.0395203	
453	-0.852356	0.0439453	
454	-0.856018	0.0489807	
455	-0.860291	0.0544739	
456	-0.860901	0.0613403	
457	-0.862732	0.0686646	
458	-0.866394	0.0811768	
459	-0.870361	0.0976563	
460	-0.871277	0.114746	
461	-0.872498	0.132599	
462	-0.87677	0.149384	
463	-0.881653	0.163574	
464	-0.881653	0.16922	
465	-0.88562	0.169983	
466	-0.889893	0.172119	
467	-0.894775	0.178223	
468	-0.896301	0.185852	
469	-0.900574	0.186157	
470	-0.905457	0.184937	
471	-0.907593	0.181427	
472	-0.911255	0.178986	
473	-0.916443	0.17746	
474	-0.920105	0.172729	
475	-0.924377	0.165405	
476	-0.925598	0.156097	
477	-0.930481	0.146942	
478	-0.934448	0.141602	
479	-0.935974	0.131989	
480	-0.939331	0.11322	
481	-0.943909	0.0860596	
482	-0.94574	0.0564575	
483	-0.949707	0.0247192	
484	-0.953369	-0.00396729	
485	-0.956116	-0.0334167	
486	-0.958862	-0.0617981	
487	-0.960388	-0.0828552	
488	-0.96344	-0.0927734	
489	-0.967712	-0.09552	
490	-0.97229	-0.0973511	
491	-0.974121	-0.0999451	
492	-0.977173	-0.103912	
493	-0.982056	-0.110321	
494	-0.983582	-0.116272	
495	-0.987549	-0.12085	
496	-0.988464	-0.125275	
497	-0.992737	-0.131531	
498	-0.995178	-0.14389	
499	-1.0022	-0.160675	
500	-1.00281	-0.183411	
501	-1.00464	-0.204163	
502	-1.00861	-0.217285	
503	-1.01288	-0.217438	
504	-1.01379	-0.207825	
505	-1.01715	-0.195007	
506	-1.01807	-0.17807	
507	-1.02386	-0.154572	
508	-1.02814	-0.128784	
509	-1.02875	-0.104828	
510	-1.03333	-0.0852966	
511	-1.0379	-0.0694275	
512	-1.04156	-0.0532532	
513	-1.0434	-0.039978	
514	-1.04706	-0.0317383	
515	-1.05194	-0.0262451	
516	-1.05682	-0.0244141	
517	-1.05774	-0.0245667	
518	-1.06079	-0.0247192	
519	-1.06384	-0.0234985	
520	-1.0672	-0.0195313	
521	-1.06781	-0.0140381	
522	-1.07269	-0.0109863	
523	-1.07697	-0.0131226	
524	-1.08124	-0.0175476	
525	-1.08215	-0.0192261	
526	-1.08643	-0.0195313	
527	-1.08795	-0.0195313	
528	-1.09161	-0.0204468	
529	-1.09436	-0.0227356	
530	-1.09741	-0.0263977	
531	-1.10229	-0.0256348	
532	-1.10626	-0.0254822	
533	-1.10748	-0.0265503	
534	-1.11115	-0.0268555	
535	-1.1145	-0.0239563	
536	-1.11755	-0.0221252	
537	-1.1203	-0.0228882	
538	-1.12457	-0.0239563	
539	-1.1264	-0.0210571	
540	-1.13007	-0.0169373	
541	-1.13464	-0.0138855	
542	-1.13922	-0.0120544	
543	-1.14044	-0.0131226	
544	-1.1441	-0.0175476	
545	-1.14563	-0.0216675	
546	-1.14929	-0.0230408	
547	-1.1499	-0.0215149	
548	-1.15417	-0.020752	
549	-1.15662	-0.0239563	
550	-1.16028	-0.0250244	
551	-1.16364	-0.0248718	
552	-1.16547	-0.0216675	
553	-1.16882	-0.0146484	
554	-1.17004	-0.0100708	
555	-1.1731	-0.0126648	
556	-1.17554	-0.0146484	
557	-1.17981	-0.0115967	
558	-1.18317	-0.00961304	
559	-1.18561	-0.00686646	
560	-1.18896	-0.00396729	
561	-1.19202	-0.00259399	
562	-1.19415	-0.000457764	
563	-1.19873	0.00106812	
564	-1.2027	0.00244141	
565	-1.20483	0.00152588	
566	-1.2088	-0.00549316	
567	-1.21033	-0.0125122	
568	-1.21368	-0.0157166	
569	-1.21735	-0.0106812	
570	-1.22009	-0.00350952	
571	-1.22314	0.000762939	
572	-1.22742	0.00167847	
573	-1.22864	0.000152588	
574	-1.2323	0.000762939	
575	-1.23291	0.00442505	
576	-1.23718	0.0050354	
577	-1.23932	0.0050354	
578	-1.2439	0.00411987	
579	-1.24847	0.00549316	
580	-1.25061	0.00640869	
581	-1.25275	0.00564575	
582	-1.25641	0.00244141	
583	-1.2619	-0.00198364	
584	-1.26251	-0.00167847	
585	-1.26678	0.00488281	
586	-1.26892	0.00991821	
587	-1.2738	0.012207	
588	-1.27686	0.0123596	
589	-1.28143	0.0102234	
590	-1.28326	0.00701904	
591	-1.28754	0.00167847	
592	-1.29059	-0.00473022	
593	-1.29608	-0.00976563	
594	-1.29791	-0.0119019	
595	-1.30219	-0.00869751	
596	-1.30524	-0.00198364	
597	-1.30829	0.000762939	
598	-1.31134	0.00274658	
599	-1.31531	0.000610352	
600	-1.31714	0.000762939	
601	-1.3208	0.0050354	
602	-1.32507	0.00701904	
603	-1.3269	0.0050354	
604	-1.33118	0.00488281	
605	-1.33209	0.00488281	
606	-1.33606	0.00427246	
607	-1.34003	0.00259399	
608	-1.34338	0.00259399	
609	-1.34521	0.00534058	
610	-1.34766	0.00808716	
611	-1.35071	0.0134277	
612	-1.35468	0.019989	
613	-1.35559	0.0219727	
614	-1.35895	0.019989	
615	-1.36169	0.0195313	
616	-1.36566	0.022583	
617	-1.36932	0.0270081	
618	-1.37115	0.0294495	
619	-1.37482	0.0294495	
620	-1.37695	0.0282288	
621	-1.38062	0.0283813	
622	-1.38336	0.0270081	
623	-1.38672	0.0288391	
624	-1.38977	0.0312805	
625	-1.3913	0.0341797	
626	-1.39496	0.0341797	
627	-1.39618	0.0375366	
628	-1.40015	0.0410461	
629	-1.40564	0.0415039	
630	-1.4093	0.0411987	
631	-1.41083	0.0434875	
632	-1.41479	0.045929	
633	-1.41907	0.0468445	
634	-1.42395	0.0494385	
635	-1.42487	0.0541687	
636	-1.42975	0.0578308	
637	-1.43433	0.0604248	
638	-1.4389	0.0639343	
639	-1.44012	0.0668335	
640	-1.44409	0.068512	
641	-1.44836	0.070343	
642	-1.45172	0.0700378	
643	-1.45721	0.068512	
644	-1.45966	0.0683594	
645	-1.46301	0.0706482	
646	-1.46759	0.0706482	
647	-1.46942	0.0726318	
648	-1.47308	0.0759888	
649	-1.47705	0.08255	
650	-1.4798	0.0892639	
651	-1.48315	0.092926	
652	-1.48712	0.0950623	
653	-1.4917	0.0946045	
654	-1.49384	0.0944519	
655	-1.4975	0.098114	
656	-1.50177	0.10376	
657	-1.50635	0.103912	
658	-1.50818	0.10376	
659	-1.51245	0.102844	
660	-1.51581	0.0999451	
661	-1.521	0.0984192	
662	-1.52344	0.100708	
663	-1.52802	0.103149	
664	-1.53259	0.106659	
665	-1.53717	0.10498	
666	-1.54144	0.102539	
667	-1.54388	0.100861	
668	-1.54755	0.102234	
669	-1.55151	0.10437	
670	-1.55609	0.103302	
671	-1.56097	0.0976563	
672	-1.56494	0.0952148	
673	-1.56708	0.0971985	
674	-1.57135	0.10025	
675	-1.57471	0.104218	
676	-1.57745	0.107574	
677	-1.58112	0.108948	
678	-1.586	0.103149	
679	-1.58752	0.0923157	
680	-1.59088	0.0860596	
681	-1.59424	0.0878906	
682	-1.59729	0.0927734	
683	-1.60004	0.096283	
684	-1.604	0.09552	
685	-1.60583	0.0930786	
686	-1.61011	0.0927734	
687	-1.61407	0.093689	
688	-1.61652	0.0932312	
689	-1.62109	0.0935364	
690	-1.62445	0.0976563	
691	-1.62567	0.103912	
692	-1.62903	0.106354	
693	-1.6333	0.0997925	
694	-1.63452	0.0843811	
695	-1.63849	0.067749	
696	-1.64063	0.0570679	
697	-1.64581	0.0588989	
698	-1.64978	0.0656128	
699	-1.64948	0.0700378	
700	-1.64948	0.0700378	
701	-1.65314	0.0675964	
702	-1.65436	0.0660706	
703	-1.65527	0.0639343	
704	-1.65466	0.0624084	
705	-1.65466	0.06073	
706	-1.65436	0.0546265	
707	-1.65466	0.0517273	
708	-1.65375	0.0511169	
709	-1.64978	0.0492859	
710	-1.64917	0.0488281	
711	-1.64948	0.0508118	
712	-1.64978	0.0502014	
713	-1.64886	0.0460815	
714	-1.64459	0.0401306	
715	-1.64154	0.0379944	
716	-1.63818	0.042572	
717	-1.63422	0.0466919	
718	-1.63025	0.0480652	
719	-1.62628	0.0454712	
720	-1.6217	0.0421143	
721	-1.61621	0.0337219	
722	-1.61194	0.0265503	
723	-1.60706	0.0233459	
724	-1.60126	0.0196838	
725	-1.59668	0.0164795	
726	-1.59027	0.014801	
727	-1.58264	0.0149536	
728	-1.57593	0.0126648	
729	-1.56677	0.0115967	
730	-1.56036	0.0100708	
731	-1.55182	0.00778198	
732	-1.54266	0.00534058	
733	-1.53442	0.00244141	
734	-1.52557	-0.00167847	
735	-1.51733	-0.00427246	
736	-1.50787	-0.00396729	
737	-1.49506	-0.00335693	
738	-1.48438	-0.00366211	
739	-1.47766	-0.00228882	
740	-1.46423	-0.0012207	
741	-1.45416	-0.00488281	
742	-1.44043	-0.00991821	
743	-1.42944	-0.0128174	
744	-1.41663	-0.0149536	
745	-1.40533	-0.015564	
746	-1.39404	-0.0187683	
747	-1.38092	-0.0215149	
748	-1.36719	-0.0247192	
749	-1.35651	-0.0267029	
750	-1.34277	-0.0253296	
751	-1.33118	-0.0267029	
752	-1.31348	-0.0276184	
753	-1.30219	-0.0259399	
754	-1.28845	-0.0216675	
755	-1.27411	-0.0204468	
756	-1.25946	-0.0242615	
757	-1.24756	-0.0268555	
758	-1.23322	-0.0260925	
759	-1.21857	-0.0216675	
760	-1.20331	-0.0224304	
761	-1.18896	-0.0291443	
762	-1.17432	-0.0364685	
763	-1.16089	-0.0382996	
764	-1.14716	-0.0337219	
765	-1.13251	-0.0291443	
766	-1.11786	-0.0276184	
767	-1.10321	-0.0302124	
768	-1.09131	-0.0334167	
769	-1.07666	-0.0340271	
770	-1.06201	-0.032196	
771	-1.04736	-0.0289917	
772	-1.0321	-0.0271606	
773	-1.01898	-0.0270081	
774	-1.00555	-0.0305176	
775	-0.990601	-0.0350952	
776	-0.976257	-0.0387573	
777	-0.960999	-0.0392151	
778	-0.94635	-0.037384	
779	-0.935364	-0.0375366	
780	-0.918579	-0.039978	
781	-0.904846	-0.0384521	
782	-0.890503	-0.0340271	
783	-0.876465	-0.032196	
784	-0.863037	-0.0315857	
785	-0.848083	-0.0325012	
786	-0.834045	-0.0364685	
787	-0.819092	-0.0410461	
788	-0.80719	-0.0434875	
789	-0.792236	-0.0457764	
790	-0.781555	-0.0489807	
791	-0.765686	-0.0502014	
792	-0.75531	-0.0485229	
793	-0.740662	-0.0486755	
794	-0.726013	-0.0482178	
795	-0.714111	-0.0445557	
796	-0.701294	-0.0434875	
797	-0.690613	-0.0418091	
798	-0.67688	-0.0428772	
799	-0.665283	-0.0445557	
800	-0.651245	-0.0476074	
801	-0.64209	-0.0488281	
802	-0.631714	-0.0489807	
803	-0.620422	-0.0492859	
804	-0.608521	-0.04776	
805	-0.597229	-0.0445557	
806	-0.587463	-0.0410461	
807	-0.577087	-0.0393677	
808	-0.563965	-0.0392151	
809	-0.554199	-0.0411987	
810	-0.545044	-0.0434875	
811	-0.535889	-0.0453186	
812	-0.526428	-0.0422668	
813	-0.515442	-0.0395203	
814	-0.508118	-0.0379944	
815	-0.497131	-0.0398254	
816	-0.489502	-0.0422668	
817	-0.480347	-0.0448608	
818	-0.473022	-0.0466919	
819	-0.461426	-0.0476074	
820	-0.455627	-0.045929	
821	-0.446777	-0.0445557	
822	-0.441589	-0.0428772	
823	-0.432434	-0.0386047	
824	-0.42572	-0.0350952	
825	-0.417175	-0.0350952	
826	-0.411377	-0.0366211	
827	-0.405579	-0.0335693	
828	-0.397949	-0.0309753	
829	-0.391846	-0.0311279	
830	-0.385742	-0.0297546	
831	-0.378723	-0.0292969	
832	-0.372925	-0.0297546	
833	-0.366516	-0.0326538	
834	-0.359192	-0.0332642	
835	-0.354004	-0.0320435	
836	-0.348511	-0.0326538	
837	-0.343628	-0.0331116	
838	-0.336914	-0.0323486	
839	-0.329895	-0.0320435	
840	-0.327148	-0.0338745	
841	-0.32196	-0.0337219	
842	-0.317688	-0.0294495	
843	-0.313721	-0.0222778	
844	-0.308228	-0.0177002	
845	-0.303345	-0.0195313	
846	-0.297546	-0.0238037	
847	-0.294495	-0.0236511	
848	-0.293579	-0.0192261	
849	-0.289917	-0.0161743	
850	-0.284729	-0.0205994	
851	-0.279846	-0.0318909	
852	-0.27771	-0.0369263	
853	-0.271606	-0.0361633	
854	-0.270386	-0.0325012	
855	-0.26886	-0.0309753	
856	-0.265503	-0.0296021	
857	-0.26062	-0.0291443	
858	-0.260315	-0.0289917	
859	-0.256042	-0.0291443	
860	-0.255432	-0.0276184	
861	-0.250854	-0.0218201	
862	-0.250244	-0.0202942	
863	-0.250244	-0.0247192	
864	-0.248413	-0.0302124	
865	-0.245667	-0.0358582	
866	-0.244141	-0.0379944	
867	-0.241089	-0.035553	
868	-0.239258	-0.0305176	
869	-0.238953	-0.0242615	
870	-0.240173	-0.0212097	
871	-0.239563	-0.0195313	
872	-0.237122	-0.0192261	
873	-0.236206	-0.0146484	
874	-0.235291	-0.00656128	
875	-0.235291	-0.000610352	
876	-0.235291	-0.00198364	
877	-0.232239	-0.00671387	
878	-0.233459	-0.0128174	
879	-0.230713	-0.0172424	
880	-0.230103	-0.0192261	
881	-0.227661	-0.0215149	
882	-0.227051	-0.0209045	
883	-0.22583	-0.0198364	
884	-0.225525	-0.020752	
885	-0.221863	-0.0216675	
886	-0.223083	-0.0228882	
887	-0.221558	-0.0265503	
888	-0.221252	-0.0289917	
889	-0.220337	-0.0294495	
890	-0.220642	-0.0289917	
891	-0.219727	-0.0292969	
892	-0.219727	-0.0291443	
893	-0.220032	-0.0274658	
894	-0.220337	-0.0227356	
895	-0.220947	-0.015564	
896	-0.223083	-0.010376	
897	-0.220032	-0.00961304	
898	-0.221558	-0.0125122	
899	-0.224915	-0.0170898	
900	-0.22583	-0.0213623	
901	-0.225525	-0.0222778	
902	-0.224609	-0.0190735	
903	-0.225525	-0.0154114	
904	-0.227661	-0.0138855	
905	-0.228882	-0.01297	
906	-0.229492	-0.0172424	
907	-0.230408	-0.0233459	
908	-0.231018	-0.0267029	
909	-0.234985	-0.0247192	
910	-0.236206	-0.0241089	
911	-0.237122	-0.0222778	
912	-0.239868	-0.0222778	
913	-0.241394	-0.0193787	
914	-0.244446	-0.0170898	
915	-0.248413	-0.0158691	
916	-0.249634	-0.0186157	
917	-0.249329	-0.018158	
918	-0.253296	-0.0193787	
919	-0.257568	-0.0213623	
920	-0.258484	-0.0227356	
921	-0.26062	-0.0253296	
922	-0.265198	-0.0296021	
923	-0.269775	-0.0318909	
924	-0.270691	-0.0337219	
925	-0.273438	-0.0340271	
926	-0.27771	-0.0325012	
927	-0.279541	-0.0308228	
928	-0.282593	-0.0315857	
929	-0.285339	-0.0299072	
930	-0.289001	-0.0291443	
931	-0.289612	-0.0263977	
932	-0.293274	-0.0244141	
933	-0.29541	-0.0257874	
934	-0.297852	-0.0289917	
935	-0.299988	-0.0294495	
936	-0.302734	-0.0311279	
937	-0.307007	-0.0318909	
938	-0.309448	-0.0286865	
939	-0.313416	-0.0241089	
940	-0.317078	-0.0190735	
941	-0.317993	-0.018158	
942	-0.321655	-0.0212097	
943	-0.326233	-0.0241089	
944	-0.327759	-0.0248718	
945	-0.331421	-0.0263977	
946	-0.332336	-0.0257874	
947	-0.336609	-0.0218201	
948	-0.338135	-0.0195313	
949	-0.343018	-0.0234985	
950	-0.346985	-0.0364685	
951	-0.351563	-0.0463867	
952	-0.352173	-0.0466919	
953	-0.35614	-0.040741	
954	-0.360718	-0.0291443	
955	-0.363159	-0.0201416	
956	-0.365906	-0.0152588	
957	-0.367126	-0.0157166	
958	-0.369873	-0.0149536	
959	-0.37323	-0.0135803	
960	-0.376587	-0.0149536	
961	-0.377502	-0.0175476	
962	-0.380554	-0.0178528	
963	-0.38269	-0.0132751	
964	-0.386353	-0.0100708	
965	-0.39032	-0.00823975	
966	-0.39093	-0.0140381	
967	-0.395813	-0.0198364	
968	-0.397034	-0.0257874	
969	-0.401611	-0.0276184	
970	-0.401306	-0.0292969	
971	-0.405273	-0.0312805	
972	-0.405884	-0.0320435	
973	-0.409851	-0.0311279	
974	-0.410767	-0.0294495	
975	-0.412292	-0.0285339	
976	-0.415955	-0.0221252	
977	-0.41626	-0.0190735	
978	-0.419922	-0.0172424	
979	-0.421143	-0.0190735	
980	-0.424194	-0.0228882	
981	-0.426941	-0.0260925	
982	-0.427856	-0.0260925	
983	-0.430603	-0.0222778	
984	-0.432434	-0.0248718	
985	-0.435486	-0.0265503	
986	-0.436096	-0.0268555	
987	-0.437317	-0.0265503	
988	-0.440674	-0.0286865	
989	-0.444946	-0.0262451	
990	-0.446167	-0.0198364	
991	-0.448914	-0.0166321	
992	-0.450439	-0.0175476	
993	-0.450134	-0.0183105	
994	-0.454407	-0.0193787	
995	-0.455322	-0.0184631	
996	-0.458374	-0.0163269	
997	-0.46051	-0.0111389	
998	-0.461426	-0.00671387	
999	-0.464783	-0.00274658	
1000	-0.464783	-0.0012207	
1001	-0.466309	-0.00274658	
1002	-0.469971	-0.00289917	
1003	-0.473633	-0.00137329	
1004	-0.474854	0.00305176	
1005	-0.473938	0.00762939	
1006	-0.478516	0.0105286	
1007	-0.480652	0.0112915	
1008	-0.484009	0.0062561	
1009	-0.484619	0.000762939	
1010	-0.484009	-0.00228882	
1011	-0.487976	-0.00427246	
1012	-0.48584	-0.00595093	
1013	-0.489502	-0.00717163	
1014	-0.489197	-0.00717163	
1015	-0.489197	-0.00350952	
1016	-0.489502	0.00289917	
1017	-0.493469	0.00762939	
1018	-0.493164	0.00640869	
1019	-0.493164	-0.00167847	
1020	-0.49469	-0.0088501	
1021	-0.49408	-0.0088501	
1022	-0.493774	-0.00427246	
1023	-0.49469	-0.000457764	
1024	-0.494385	0.00320435	
1025	-0.49469	0.00671387	
1026	-0.493774	0.00854492	
1027	-0.493774	0.00671387	
1028	-0.49469	0.00350952	
1029	-0.493774	-0.00244141	
1030	-0.493774	-0.00671387	
1031	-0.494385	-0.00778198	
1032	-0.493774	-0.00976563	
1033	-0.494385	-0.00869751	
1034	-0.49408	-0.00717163	
1035	-0.49408	-0.00686646	
1036	-0.494995	-0.00656128	
1037	-0.493164	-0.00488281	
1038	-0.493164	-0.00762939	
1039	-0.494385	-0.0114441	
1040	-0.492554	-0.0146484	
1041	-0.491943	-0.0172424	
1042	-0.489807	-0.0169373	
1043	-0.489502	-0.019989	
1044	-0.489197	-0.0230408	
1045	-0.487671	-0.0212097	
1046	-0.484314	-0.0186157	
1047	-0.484619	-0.0151062	
1048	-0.484314	-0.0157166	
1049	-0.484314	-0.0227356	
1050	-0.484314	-0.0302124	
1051	-0.484619	-0.0338745	
1052	-0.483093	-0.0335693	
1053	-0.479736	-0.0308228	
1054	-0.479431	-0.0312805	
1055	-0.480042	-0.0315857	
1056	-0.475464	-0.0335693	
1057	-0.474548	-0.0343323	
1058	-0.474854	-0.0312805	
1059	-0.475464	-0.0276184	
1060	-0.474854	-0.0297546	
1061	-0.473328	-0.0344849	
1062	-0.472717	-0.0386047	
1063	-0.470276	-0.0401306	
1064	-0.473022	-0.0424194	
1065	-0.470581	-0.045166	
1066	-0.470276	-0.0462341	
1067	-0.469971	-0.0444031	
1068	-0.472412	-0.0424194	
1069	-0.473633	-0.0419617	
1070	-0.474854	-0.0413513	
1071	-0.474243	-0.0419617	
1072	-0.474548	-0.040741	
1073	-0.47699	-0.0382996	
1074	-0.477295	-0.0358582	
1075	-0.477905	-0.0372314	
1076	-0.480042	-0.0411987	
1077	-0.478516	-0.0456238	
1078	-0.479736	-0.0479126	
1079	-0.479736	-0.045929	
1080	-0.483398	-0.0389099	
1081	-0.484314	-0.0331116	
1082	-0.484619	-0.0285339	
1083	-0.485229	-0.0268555	
1084	-0.484314	-0.0296021	
1085	-0.484009	-0.0346375	
1086	-0.485229	-0.0386047	
1087	-0.484314	-0.0389099	
1088	-0.488281	-0.0411987	
1089	-0.489502	-0.0445557	
1090	-0.489502	-0.0486755	
1091	-0.489502	-0.045929	
1092	-0.490417	-0.0404358	
1093	-0.493469	-0.0320435	
1094	-0.49408	-0.0276184	
1095	-0.49469	-0.0265503	
1096	-0.498657	-0.0256348	
1097	-0.500183	-0.0297546	
1098	-0.503845	-0.0320435	
1099	-0.50415	-0.0328064	
1100	-0.507507	-0.032196	
1101	-0.509949	-0.0299072	
1102	-0.513611	-0.0300598	
1103	-0.513	-0.0312805	
1104	-0.517578	-0.0309753	
1105	-0.518494	-0.0274658	
1106	-0.522156	-0.0248718	
1107	-0.523376	-0.0244141	
1108	-0.525513	-0.0273132	
1109	-0.527954	-0.0291443	
1110	-0.528564	-0.0282288	
1111	-0.529175	-0.0291443	
1112	-0.529785	-0.032196	
1113	-0.52948	-0.0389099	
1114	-0.533142	-0.0434875	
1115	-0.532837	-0.0450134	
1116	-0.536804	-0.0434875	
1117	-0.538025	-0.0398254	
1118	-0.53833	-0.0338745	
1119	-0.541992	-0.0262451	
1120	-0.543213	-0.0157166	
1121	-0.543518	-0.0038147	
1122	-0.54718	0.00793457	
1123	-0.547485	0.0169373	
1124	-0.549316	0.0219727	
1125	-0.553284	0.0238037	
1126	-0.553284	0.0247192	
1127	-0.556335	0.0294495	
1128	-0.558167	0.0325012	
1129	-0.560608	0.0341797	
1130	-0.561523	0.0325012	
1131	-0.563354	0.0352478	
1132	-0.563965	0.0444031	
1133	-0.567627	0.0601196	
1134	-0.569153	0.0801086	
1135	-0.57251	0.101318	
1136	-0.572205	0.120544	
1137	-0.575867	0.136871	
1138	-0.577698	0.149078	
1139	-0.578613	0.160065	
1140	-0.582275	0.171661	
1141	-0.582886	0.181427	
1142	-0.585938	0.194092	
1143	-0.588379	0.205841	
1144	-0.591736	0.211029	
1145	-0.596008	0.212708	
1146	-0.597534	0.209198	
1147	-0.601501	0.202026	
1148	-0.605774	0.192413	
1149	-0.6073	0.180969	
1150	-0.608215	0.170746	
1151	-0.611877	0.161591	
1152	-0.615234	0.15625	
1153	-0.617065	0.145721	
1154	-0.620117	0.125885	
1155	-0.622559	0.096283	
1156	-0.625916	0.0695801	
1157	-0.626221	0.0375366	
1158	-0.630493	-0.00640869	
1159	-0.632935	-0.040741	
1160	-0.635681	-0.0663757	
1161	-0.639038	-0.0810242	
1162	-0.641785	-0.0837708	
1163	-0.647888	-0.0773621	
1164	-0.65033	-0.0708008	
1165	-0.651245	-0.0694275	
1166	-0.654297	-0.0762939	
1167	-0.657043	-0.0834656	
1168	-0.65979	-0.0878906	
1169	-0.662231	-0.0920105	
1170	-0.665588	-0.106354	
1171	-0.669861	-0.126801	
1172	-0.671387	-0.145721	
1173	-0.674438	-0.165863	
1174	-0.676575	-0.187225	
1175	-0.680237	-0.203094	
1176	-0.683899	-0.207977	
1177	-0.686951	-0.205536	
1178	-0.689697	-0.196838	
1179	-0.690308	-0.183258	
1180	-0.69397	-0.166931	
1181	-0.699463	-0.146179	
1182	-0.701599	-0.123444	
1183	-0.704956	-0.101776	
1184	-0.705872	-0.0819397	
1185	-0.712585	-0.0634766	
1186	-0.713501	-0.0502014	
1187	-0.717773	-0.0405884	
1188	-0.72052	-0.0369263	
1189	-0.725098	-0.0369263	
1190	-0.729065	-0.0328064	
1191	-0.733337	-0.0276184	
1192	-0.734558	-0.0248718	
1193	-0.73761	-0.0280762	
1194	-0.743103	-0.0354004	
1195	-0.744934	-0.0436401	
1196	-0.748596	-0.0485229	
1197	-0.753174	-0.0434875	
1198	-0.754089	-0.0308228	
1199	-0.758057	-0.0192261	
1200	-0.762634	-0.0119019	
1201	-0.764465	-0.00976563	
1202	-0.768738	-0.0106812	
1203	-0.769348	-0.0141907	
1204	-0.774841	-0.0144958	
1205	-0.778503	-0.0186157	
1206	-0.779419	-0.0215149	
1207	-0.782166	-0.0209045	
1208	-0.786438	-0.0187683	
1209	-0.788574	-0.0143433	
1210	-0.791321	-0.00930786	
1211	-0.793457	-0.00656128	
1212	-0.797729	-0.00595093	
1213	-0.801697	-0.00976563	
1214	-0.803528	-0.0178528	
1215	-0.80719	-0.0267029	
1216	-0.8078	-0.0311279	
1217	-0.812073	-0.0260925	
1218	-0.81604	-0.0184631	
1219	-0.821533	-0.0201416	
1220	-0.826111	-0.0244141	
1221	-0.827026	-0.0241089	
1222	-0.831604	-0.0192261	
1223	-0.833435	-0.0144958	
1224	-0.837097	-0.0131226	
1225	-0.841064	-0.0170898	
1226	-0.843201	-0.0202942	
1227	-0.848389	-0.0239563	
1228	-0.85144	-0.0299072	
1229	-0.855408	-0.0413513	
1230	-0.860291	-0.0492859	
1231	-0.861206	-0.0512695	
1232	-0.863037	-0.052948	
1233	-0.865784	-0.0627136	
1234	-0.867615	-0.0767517	
1235	-0.870667	-0.0875854	
1236	-0.874939	-0.0914001	
1237	-0.880127	-0.0965881	
1238	-0.88501	-0.102997	
1239	-0.88562	-0.105438	
1240	-0.889587	-0.0993347	
1241	-0.892029	-0.0956726	
1242	-0.896301	-0.0947571	
1243	-0.896912	-0.0923157	
1244	-0.900269	-0.088501	
1245	-0.901794	-0.0944519	
1246	-0.905762	-0.104675	
1247	-0.909119	-0.105438	
1248	-0.91156	-0.0996399	
1249	-0.916138	-0.0907898	
1250	-0.917358	-0.0840759	
1251	-0.921631	-0.0868225	
1252	-0.924683	-0.0953674	
1253	-0.925293	-0.101318	
1254	-0.928955	-0.12085	
1255	-0.929871	-0.149841	
1256	-0.933533	-0.167999	
1257	-0.935669	-0.171051	
1258	-0.938721	-0.174103	
1259	-0.940552	-0.172119	
1260	-0.944519	-0.155945	
1261	-0.947876	-0.123138	
1262	-0.951233	-0.0773621	
1263	-0.953674	-0.0460815	
1264	-0.958252	-0.0350952	
1265	-0.959473	-0.0312805	
1266	-0.96283	-0.0254822	
1267	-0.963745	-0.0241089	
1268	-0.968323	-0.0215149	
1269	-0.972595	-0.0180054	
1270	-0.973511	-0.0135803	
1271	-0.977478	-0.0241089	
1272	-0.979919	-0.0434875	
1273	-0.983582	-0.0662231	
1274	-0.987549	-0.0997925	
1275	-0.990295	-0.148163	
1276	-0.993652	-0.195465	
1277	-0.993958	-0.233459	
1278	-0.997925	-0.256195	
1279	-1.0022	-0.265808	
1280	-1.00464	-0.26413	
1281	-1.008	-0.248108	
1282	-1.00952	-0.20874	
1283	-1.01654	-0.160065	
1284	-1.01959	-0.112152	
1285	-1.0199	-0.0679016	
1286	-1.02264	-0.0325012	
1287	-1.02631	0.0112915	
1288	-1.02783	0.059967	
1289	-1.03241	0.0952148	
1290	-1.03333	0.105743	
1291	-1.03668	0.0965881	
1292	-1.03912	0.0802612	
1293	-1.04004	0.057373	
1294	-1.04309	0.0105286	
1295	-1.0437	-0.0500488	
1296	-1.04736	-0.103607	
1297	-1.04828	-0.130615	
1298	-1.05103	-0.132141	
1299	-1.05591	-0.123291	
1300	-1.05743	-0.103607	
1301	-1.0611	-0.0765991	
1302	-1.06201	-0.0498962	
1303	-1.06567	-0.0270081	
1304	-1.06873	-0.0114441	
1305	-1.07269	0.00350952	
1306	-1.07697	0.0170898	
1307	-1.07819	0.0306702	
1308	-1.08154	0.0448608	
1309	-1.08215	0.0584412	
1310	-1.08582	0.0524902	
1311	-1.09039	0.0146484	
1312	-1.09161	-0.0469971	
1313	-1.09314	-0.114594	
1314	-1.09619	-0.168152	
1315	-1.0965	-0.205688	
1316	-1.10016	-0.230103	
1317	-1.10168	-0.243988	
1318	-1.10535	-0.253448	
1319	-1.10748	-0.268707	
1320	-1.11053	-0.289307	
1321	-1.11237	-0.306702	
1322	-1.11572	-0.31311	
1323	-1.11938	-0.309906	
1324	-1.12091	-0.296783	
1325	-1.12457	-0.272369	
1326	-1.1264	-0.234985	
1327	-1.13068	-0.193634	
1328	-1.13464	-0.169067	
1329	-1.13617	-0.15976	
1330	-1.14014	-0.156097	
1331	-1.14105	-0.149536	
1332	-1.14929	-0.137787	
1333	-1.1499	-0.118256	
1334	-1.15204	-0.0886536	
1335	-1.15631	-0.0515747	
1336	-1.15997	-0.0151062	
1337	-1.16364	0.018158	
1338	-1.16852	0.0408936	
1339	-1.17035	0.0482178	
1340	-1.17523	0.0421143	
1341	-1.1792	0.0209045	
1342	-1.18286	-0.00289917	
1343	-1.18805	-0.0212097	
1344	-1.19019	-0.0376892	
1345	-1.19354	-0.0486755	
1346	-1.19812	-0.0532532	
1347	-1.19965	-0.0547791	
1348	-1.20514	-0.0619507	
1349	-1.2088	-0.0714111	
1350	-1.21033	-0.0750732	
1351	-1.2146	-0.0704956	
1352	-1.21826	-0.0636292	
1353	-1.22284	-0.0584412	
1354	-1.22375	-0.0546265	
1355	-1.22772	-0.0566101	
1356	-1.22894	-0.0608826	
1357	-1.2323	-0.0595093	
1358	-1.23352	-0.06073	
1359	-1.23688	-0.058136	
1360	-1.23871	-0.0520325	
1361	-1.23932	-0.0531006	
1362	-1.24237	-0.0627136	
1363	-1.24298	-0.0738525	
1364	-1.24451	-0.0883484	
1365	-1.24786	-0.118866	
1366	-1.24817	-0.166931	
1367	-1.24847	-0.217133	
1368	-1.25214	-0.250549	
1369	-1.25275	-0.256348	
1370	-1.25305	-0.24765	
1371	-1.25305	-0.222626	
1372	-1.25305	-0.18631	
1373	-1.25305	-0.147247	
1374	-1.25549	-0.106049	
1375	-1.25397	-0.0657654	
1376	-1.25397	-0.0390625	
1377	-1.25336	-0.0202942	
1378	-1.25305	-0.00244141	
1379	-1.25336	0.01297	
1380	-1.25305	0.0215149	
1381	-1.24878	0.0132751	
1382	-1.24817	0.00289917	
1383	-1.24847	-0.00732422	
1384	-1.24725	-0.0195313	
1385	-1.24359	-0.035553	
1386	-1.24329	-0.0544739	
1387	-1.23962	-0.0694275	
1388	-1.23871	-0.0746155	
1389	-1.23474	-0.0669861	
1390	-1.22925	-0.0538635	
1391	-1.22742	-0.0485229	
1392	-1.22406	-0.0424194	
1393	-1.22009	-0.0265503	
1394	-1.21429	-0.0102234	
1395	-1.21033	0.00579834	
1396	-1.20422	0.0260925	
1397	-1.19904	0.0491333	
1398	-1.19415	0.0601196	
1399	-1.18835	0.0527954	
1400	-1.18286	0.0341797	
1401	-1.17615	0.0215149	
1402	-1.17004	0.0126648	
1403	-1.16486	0.000762939	
1404	-1.15631	-0.0154114	
1405	-1.14624	-0.0273132	
1406	-1.13983	-0.0332642	
1407	-1.13068	-0.0401306	
1408	-1.12122	-0.04776	
1409	-1.11115	-0.0537109	
1410	-1.10107	-0.0650024	
1411	-1.09222	-0.0727844	
1412	-1.08307	-0.0730896	
1413	-1.07269	-0.0653076	
1414	-1.06232	-0.0534058	
1415	-1.05225	-0.0469971	
1416	-1.04156	-0.0473022	
1417	-1.0318	-0.0521851	
1418	-1.01898	-0.0543213	
1419	-1.00891	-0.0411987	
1420	-0.99762	-0.0312805	
1421	-0.984192	-0.0372314	
1422	-0.9729	-0.0567627	
1423	-0.959167	-0.0840759	
1424	-0.949707	-0.108185	
1425	-0.93689	-0.120392	
1426	-0.924988	-0.107117	
1427	-0.911255	-0.078125	
1428	-0.897827	-0.0492859	
1429	-0.88623	-0.0201416	
1430	-0.872192	0.00915527	
1431	-0.861816	0.0328064	
1432	-0.849304	0.0474548	
1433	-0.836792	0.0578308	
1434	-0.822754	0.059967	
1435	-0.809937	0.0590515	
1436	-0.798035	0.0508118	
1437	-0.784302	0.0247192	
1438	-0.772705	-0.0126648	
1439	-0.758057	-0.0595093	
1440	-0.744629	-0.101776	
1441	-0.733948	-0.133362	
1442	-0.72052	-0.148315	
1443	-0.705872	-0.15213	
1444	-0.69519	-0.144653	
1445	-0.681763	-0.13504	
1446	-0.668945	-0.132446	
1447	-0.656738	-0.128021	
1448	-0.646057	-0.111694	
1449	-0.631714	-0.0863647	
1450	-0.618286	-0.0559998	
1451	-0.607605	-0.0244141	
1452	-0.596619	0.0100708	
1453	-0.582581	0.050354	
1454	-0.569458	0.0891113	
1455	-0.558167	0.11734	
1456	-0.544128	0.115509	
1457	-0.533142	0.0959778	
1458	-0.519104	0.0663757	
1459	-0.509033	0.0314331	
1460	-0.496216	-0.00305176	
1461	-0.484314	-0.0411987	
1462	-0.473022	-0.0740051	
1463	-0.46051	-0.0984192	
1464	-0.450745	-0.115509	
1465	-0.437012	-0.128479	
1466	-0.426941	-0.142059	
1467	-0.416565	-0.150452	
1468	-0.405884	-0.147247	
1469	-0.392456	-0.130768	
1470	-0.382385	-0.114136	
1471	-0.372314	-0.0987244	
1472	-0.359192	-0.0767517	
1473	-0.348816	-0.0532532	
1474	-0.338135	-0.0370789	
1475	-0.328064	-0.0279236	
1476	-0.318604	-0.0190735	
1477	-0.308838	0.000610352	
1478	-0.299377	0.0270081	
1479	-0.289001	0.0428772	
1480	-0.279541	0.0521851	
1481	-0.270081	0.0689697	
1482	-0.260925	0.102081	
1483	-0.250854	0.141449	
1484	-0.244446	0.179291	
1485	-0.235291	0.207214	
1486	-0.225525	0.219727	
1487	-0.215759	0.225525	
1488	-0.209961	0.233307	
1489	-0.201416	0.241699	
1490	-0.195007	0.247345	
1491	-0.185852	0.257111	
1492	-0.179749	0.264587	
1493	-0.172729	0.260468	
1494	-0.166626	0.248566	
1495	-0.160217	0.236816	
1496	-0.153503	0.230103	
1497	-0.146179	0.23056	
1498	-0.142517	0.233154	
1499	-0.138855	0.224609	
1500	-0.132751	0.205078	
1501	-0.126953	0.189972	
1502	-0.121765	0.181885	
1503	-0.116272	0.185547	
1504	-0.113525	0.186615	
1505	-0.108948	0.175018	
1506	-0.10376	0.161285	
1507	-0.0991821	0.155487	
1508	-0.0970459	0.159912	
1509	-0.0921631	0.16983	
1510	-0.0866699	0.179596	
1511	-0.0836182	0.189819	
1512	-0.0775146	0.19989	
1513	-0.0738525	0.206909	
1514	-0.0695801	0.211029	
1515	-0.0646973	0.217285	
1516	-0.0619507	0.233154	
1517	-0.0552368	0.276642	
1518	-0.0524902	0.33432	
1519	-0.0497437	0.372772	
1520	-0.0445557	0.391388	
1521	-0.0427246	0.402374	
1522	-0.0396729	0.409851	
1523	-0.0375366	0.406799	
1524	-0.03479	0.387726	
1525	-0.0332642	0.366974	
1526	-0.0296021	0.352478	
1527	-0.0292969	0.339508	
1528	-0.0289917	0.312042	
1529	-0.0244141	0.281525	
1530	-0.0244141	0.25116	
1531	-0.0231934	0.223389	
1532	-0.0201416	0.189972	
1533	-0.0198364	0.164948	
1534	-0.0183105	0.161438	
1535	-0.015564	0.180359	
1536	-0.0146484	0.206451	
1537	-0.0149536	0.233765	
1538	-0.0109863	0.26947	
1539	-0.00976563	0.307312	
1540	-0.00976563	0.331879	
1541	-0.00946045	0.343323	
1542	-0.00549316	0.350342	
1543	-0.00579834	0.357971	
1544	-0.00518799	0.364838	
1545	-0.000915527	0.36911	
1546	-0.000610352	0.372467	
1547	-0.00152588	0.38208	
1548	-0.00366211	0.408325	
1549	-0.000305176	0.455017	
1550	0	0.513916	
1551	-0.000610352	0.559387	
1552	-0.000305176	0.592651	
1553	-0.000610352	0.61142	
1554	0	0.606232	
1555	-0.000915527	0.584564	
1556	0	0.560303	
1557	0	0.538025	
1558	-0.00274658	0.522766	
1559	-0.00335693	0.511627	
1560	-0.00488281	0.499268	
1561	-0.00427246	0.488281	
1562	-0.0088501	0.476074	
1563	-0.00946045	0.457916	
1564	-0.0100708	0.448761	
1565	-0.010376	0.444489	
1566	-0.0146484	0.430908	
1567	-0.015564	0.411224	
1568	-0.0140381	0.396271	
1569	-0.0180054	0.388947	
1570	-0.0195313	0.380859	
1571	-0.0204468	0.366669	
1572	-0.0238037	0.348816	
1573	-0.0244141	0.332642	
1574	-0.0253296	0.323334	
1575	-0.0289917	0.317688	
1576	-0.0335693	0.313416	
1577	-0.0344849	0.317841	
1578	-0.0350952	0.326996	
1579	-0.0393677	0.343933	
1580	-0.0405884	0.359497	
1581	-0.0439453	0.36377	
1582	-0.045166	0.355682	
1583	-0.0488281	0.336151	
1584	-0.0531006	0.312653	
1585	-0.0537109	0.29068	
1586	-0.057373	0.27298	
1587	-0.0631714	0.26413	
1588	-0.0634766	0.262909	
1589	-0.0650024	0.258179	
1590	-0.0683594	0.244446	
1591	-0.0723267	0.218353	
1592	-0.0744629	0.19455	
1593	-0.0775146	0.187378	
1594	-0.0802612	0.190277	
1595	-0.0830078	0.189056	
1596	-0.0872803	0.176697	
1597	-0.0894165	0.155182	
1598	-0.0927734	0.134735	
1599	-0.0967407	0.125275	
1600	-0.098877	0.12558	
1601	-0.103149	0.13382	
1602	-0.108643	0.149078	
1603	-0.11322	0.176239	
1604	-0.117188	0.206146	
1605	-0.118408	0.227661	
1606	-0.123291	0.240021	
1607	-0.128174	0.248108	
1608	-0.133057	0.257568	
1609	-0.137634	0.26062	
1610	-0.141907	0.245514	
1611	-0.143127	0.2211	
1612	-0.14801	0.19928	
1613	-0.151367	0.188904	
1614	-0.152588	0.203705	
1615	-0.157776	0.234222	
1616	-0.162354	0.267792	
1617	-0.166931	0.292206	
1618	-0.171509	0.290985	
1619	-0.172119	0.262756	
1620	-0.176392	0.226898	
1621	-0.180054	0.227203	
1622	-0.184937	0.25238	
1623	-0.188293	0.279541	
1624	-0.190125	0.294037	
1625	-0.192871	0.301514	
1626	-0.196838	0.308685	
1627	-0.204468	0.319824	
1628	-0.206604	0.325623	
1629	-0.206909	0.330811	
1630	-0.211182	0.328979	
1631	-0.215149	0.3125	
1632	-0.219116	0.271606	
1633	-0.221558	0.20813	
1634	-0.222778	0.123596	
1635	-0.227661	0.0386047	
1636	-0.229492	-0.0314331	
1637	-0.23407	-0.0857544	
1638	-0.235291	-0.113373	
1639	-0.238342	-0.120087	
1640	-0.240784	-0.126343	
1641	-0.244446	-0.13443	
1642	-0.244751	-0.130768	
1643	-0.248413	-0.104828	
1644	-0.249939	-0.0770569	
1645	-0.250549	-0.0526428	
1646	-0.253601	-0.0276184	
1647	-0.254517	0.000457764	
1648	-0.255127	0.0338745	
1649	-0.257263	0.0704956	
1650	-0.259094	0.110321	
1651	-0.259094	0.135498	
1652	-0.259399	0.14801	
1653	-0.263062	0.1474	
1654	-0.263977	0.133209	
1655	-0.264587	0.105743	
1656	-0.266418	0.0773621	
1657	-0.265198	0.0489807	
1658	-0.268555	0.0210571	
1659	-0.26947	-0.00274658	
1660	-0.269165	-0.025177	
1661	-0.268555	-0.0445557	
1662	-0.269775	-0.0497437	
1663	-0.26947	-0.037384	
1664	-0.26947	-0.0209045	
1665	-0.268555	-0.0169373	
1666	-0.26947	-0.0247192	
1667	-0.269775	-0.0320435	
1668	-0.269775	-0.0332642	
1669	-0.269775	-0.0289917	
1670	-0.265198	-0.0230408	
1671	-0.267029	-0.0152588	
1672	-0.26825	0.00289917	
1673	-0.265503	0.032959	
1674	-0.264282	0.0608826	
1675	-0.264587	0.0737	
1676	-0.264282	0.0619507	
1677	-0.263672	0.0354004	
1678	-0.263367	0.0134277	
1679	-0.261536	0.0209045	
1680	-0.26062	0.0619507	
1681	-0.258179	0.123749	
1682	-0.258484	0.17746	
1683	-0.258789	0.216217	
1684	-0.258179	0.233307	
1685	-0.256042	0.217133	
1686	-0.253906	0.16449	
1687	-0.255127	0.098877	
1688	-0.254517	0.0332642	
1689	-0.253601	-0.022583	
1690	-0.254517	-0.0804138	
1691	-0.251465	-0.145111	
1692	-0.249023	-0.215607	
1693	-0.249634	-0.281372	
1694	-0.249634	-0.325928	
1695	-0.248413	-0.345001	
1696	-0.245361	-0.330353	
1697	-0.245361	-0.299072	
1698	-0.244751	-0.264282	
1699	-0.241089	-0.227966	
1700	-0.239258	-0.202789	
1701	-0.239258	-0.186005	
1702	-0.235901	-0.168304	
1703	-0.231018	-0.150909	
1704	-0.229797	-0.15213	
1705	-0.226746	-0.168152	
1706	-0.224304	-0.194092	
1707	-0.220642	-0.227203	
1708	-0.219116	-0.254822	
1709	-0.214844	-0.265198	
1710	-0.209045	-0.256805	
1711	-0.202026	-0.246887	
1712	-0.19989	-0.241089	
1713	-0.195007	-0.233002	
1714	-0.19043	-0.219879	
1715	-0.183105	-0.191956	
1716	-0.177612	-0.1651	
1717	-0.172424	-0.150909	
1718	-0.167236	-0.147247	
1719	-0.157471	-0.152283	
1720	-0.151978	-0.179443	
1721	-0.143738	-0.216064	
1722	-0.137024	-0.243073	
1723	-0.131836	-0.248871	
1724	-0.123291	-0.238953	
1725	-0.114746	-0.227966	
1726	-0.107727	-0.227356	
1727	-0.0991821	-0.225983	
1728	-0.0921631	-0.219727	
1729	-0.0823975	-0.209198	
1730	-0.0747681	-0.191193	
1731	-0.0692749	-0.176239	
1732	-0.0588989	-0.172424	
1733	-0.0497437	-0.17334	
1734	-0.0436401	-0.174561	
1735	-0.038147	-0.189972	
1736	-0.0299072	-0.227356	
1737	-0.0241089	-0.265808	
1738	-0.0164795	-0.295258	
1739	-0.0100708	-0.318604	
1740	-0.000610352	-0.341339	
1741	0.00518799	-0.361938	
1742	0.0134277	-0.385895	
1743	0.0180054	-0.403748	
1744	0.0234985	-0.408173	
1745	0.027771	-0.392914	
1746	0.0335693	-0.361633	
1747	0.03479	-0.327911	
1748	0.0402832	-0.304108	
1749	0.0430298	-0.2771	
1750	0.0476074	-0.247192	
1751	0.0488281	-0.213013	
1752	0.0515747	-0.172882	
1753	0.0534058	-0.136108	
1754	0.0540161	-0.116272	
1755	0.0558472	-0.103302	
1756	0.057373	-0.0686646	
1757	0.0576782	-0.0128174	
1758	0.0579834	0.0445557	
1759	0.0585938	0.0849915	
1760	0.0588989	0.108795	
1761	0.0585938	0.120239	
1762	0.0549316	0.124969	
1763	0.0537109	0.11673	
1764	0.0531006	0.0857544	
1765	0.0537109	0.0219727	
1766	0.0506592	-0.0733948	
1767	0.0491333	-0.174408	
1768	0.0454712	-0.255585	
1769	0.0439453	-0.298004	
1770	0.0405884	-0.296326	
1771	0.0393677	-0.280304	
1772	0.0354004	-0.256653	
1773	0.032959	-0.22049	
1774	0.0317383	-0.182953	
1775	0.0280762	-0.15213	
1776	0.0241089	-0.131683	
1777	0.020752	-0.118256	
1778	0.0192261	-0.12146	
1779	0.0146484	-0.142517	
1780	0.00915527	-0.186462	
1781	0.00549316	-0.232544	
1782	0.00305176	-0.270386	
1783	-0.00335693	-0.296326	
1784	-0.00610352	-0.306702	
1785	-0.0134277	-0.290527	
1786	-0.0152588	-0.252228	
1787	-0.0228882	-0.20401	
1788	-0.027771	-0.161438	
1789	-0.0341797	-0.132904	
1790	-0.0396729	-0.115509	
1791	-0.0448608	-0.0930786	
1792	-0.0497437	-0.0614929	
1793	-0.0585938	-0.0253296	
1794	-0.0646973	0.0115967	
1795	-0.072937	0.0402832	
1796	-0.0793457	0.0592041	
1797	-0.0854492	0.0770569	
1798	-0.0939941	0.100098	
1799	-0.102844	0.134277	
1800	-0.108948	0.166016	
1801	-0.116272	0.181427	
1802	-0.122986	0.188446	
1803	-0.128174	0.197296	
1804	-0.136719	0.21637	
1805	-0.144653	0.240784	
1806	-0.151062	0.261383	
1807	-0.155945	0.267487	
1808	-0.166016	0.259705	
1809	-0.172119	0.22934	
1810	-0.180969	0.161896	
1811	-0.187073	0.0767517	
1812	-0.195313	0.0143433	
1813	-0.203552	-0.0202942	
1814	-0.209656	-0.0428772	
1815	-0.216064	-0.059967	
1816	-0.223999	-0.0617981	
1817	-0.234375	-0.06073	
1818	-0.240173	-0.0604248	
1819	-0.247498	-0.0569153	
1820	-0.254517	-0.0584412	
1821	-0.262756	-0.0558472	
1822	-0.269165	-0.0466919	
1823	-0.27832	-0.0480652	
1824	-0.284424	-0.0596619	
1825	-0.291748	-0.0697327	
1826	-0.298157	-0.0675964	
1827	-0.308838	-0.0628662	
1828	-0.315247	-0.0735474	
1829	-0.323486	-0.098114	
1830	-0.331421	-0.124054	
1831	-0.337219	-0.140533	
1832	-0.34668	-0.151367	
1833	-0.35614	-0.15152	
1834	-0.365295	-0.140686	
1835	-0.37262	-0.118713	
1836	-0.380859	-0.0819397	
1837	-0.387268	-0.0430298	
1838	-0.396423	-0.0135803	
1839	-0.405579	0.00869751	
1840	-0.414734	0.0216675	
1841	-0.4245	0.0271606	
1842	-0.433044	0.0341797	
1843	-0.444336	0.0421143	
1844	-0.451355	0.0419617	
1845	-0.4599	0.0012207	
1846	-0.46936	-0.0627136	
1847	-0.479431	-0.103455	
1848	-0.488892	-0.109863	
1849	-0.498962	-0.0914001	
1850	-0.508423	-0.0715637	
1851	-0.516663	-0.062561	
1852	-0.526123	-0.0544739	
1853	-0.533447	-0.0378418	
1854	-0.543823	-0.0161743	
1855	-0.553589	0.00244141	
1856	-0.562744	0.00732422	
1857	-0.572815	0.00473022	
1858	-0.58197	0.00259399	
1859	-0.591736	0.00595093	
1860	-0.602112	0.0126648	
1861	-0.610657	0.0138855	
1862	-0.621033	0.010376	
1863	-0.627441	0.00183105	
1864	-0.635986	-0.00305176	
1865	-0.645447	0.00427246	
1866	-0.655212	0.0187683	
1867	-0.665283	0.0360107	
1868	-0.675049	0.0549316	
1869	-0.682068	0.0752258	
1870	-0.691833	0.09552	
1871	-0.700378	0.108795	
1872	-0.709229	0.111542	
1873	-0.718079	0.105591	
1874	-0.724487	0.0881958	
1875	-0.733643	0.0608826	
1876	-0.743713	0.0302124	
1877	-0.749817	0.00427246	
1878	-0.757751	-0.0119019	
1879	-0.764465	-0.0289917	
1880	-0.773621	-0.0543213	
1881	-0.78125	-0.0663757	
1882	-0.787659	-0.0575256	
1883	-0.794067	-0.0444031	
1884	-0.801697	-0.032196	
1885	-0.808716	-0.00762939	
1886	-0.816345	0.0212097	
1887	-0.822144	0.0482178	
1888	-0.830078	0.0775146	
1889	-0.837097	0.107574	
1890	-0.842285	0.138855	
1891	-0.85144	0.170135	
1892	-0.859985	0.198364	
1893	-0.865479	0.216217	
1894	-0.871582	0.221558	
1895	-0.878906	0.208282	
1896	-0.88562	0.185699	
1897	-0.891113	0.176697	
1898	-0.899658	0.176239	
1899	-0.905151	0.176849	
1900	-0.91156	0.178223	
1901	-0.918884	0.175781	
1902	-0.924377	0.176544	
1903	-0.930481	0.178375	
1904	-0.93811	0.178223	
1905	-0.944824	0.171051	
1906	-0.953369	0.15274	
1907	-0.959167	0.137634	
1908	-0.964966	0.140839	
1909	-0.972595	0.153503	
1910	-0.979309	0.15152	
1911	-0.986938	0.146179	
1912	-0.992737	0.142365	
1913	-0.99884	0.141754	
1914	-1.00677	0.140839	
1915	-1.01257	0.138702	
1916	-1.01929	0.134277	
1917	-1.02753	0.131989	
1918	-1.03363	0.135498	
1919	-1.03912	0.142212	
1920	-1.04614	0.140991	
1921	-1.05316	0.140076	
1922	-1.05804	0.148926	
1923	-1.06659	0.163574	
1924	-1.07269	0.177002	
1925	-1.08154	0.182495	
1926	-1.08826	0.165863	
1927	-1.09222	0.135956	
1928	-1.10016	0.120697	
1929	-1.10565	0.132446	
1930	-1.11572	0.149841	
1931	-1.12183	0.158234	
1932	-1.12915	0.158691	
1933	-1.13586	0.158844	
1934	-1.14349	0.156097	
1935	-1.14929	0.151978	
1936	-1.15479	0.150604	
1937	-1.16333	0.150299	
1938	-1.16974	0.149384	
1939	-1.17584	0.149078	
1940	-1.18286	0.149994	
1941	-1.18927	0.159149	
1942	-1.19537	0.170288	
1943	-1.2027	0.171051	
1944	-1.20819	0.158997	
1945	-1.2149	0.144348	
1946	-1.22284	0.140533	
1947	-1.22833	0.145721	
1948	-1.23413	0.14328	
1949	-1.24237	0.13031	
1950	-1.2442	0.114746	
1951	-1.25122	0.105133	
1952	-1.25732	0.0968933	
1953	-1.26343	0.0881958	
1954	-1.27106	0.0862122	
1955	-1.27625	0.0942993	
1956	-1.28174	0.107574	
1957	-1.28723	0.115967	
1958	-1.29303	0.119476	
1959	-1.29761	0.119629	
1960	-1.30219	0.112	
1961	-1.30768	0.107422	
1962	-1.31226	0.113678	
1963	-1.31714	0.124512	
1964	-1.32202	0.12085	
1965	-1.32721	0.105591	
1966	-1.33453	0.0828552	
1967	-1.33759	0.0570679	
1968	-1.34277	0.0398254	
1969	-1.34613	0.0384521	
1970	-1.35162	0.0491333	
1971	-1.3562	0.0592041	
1972	-1.36139	0.063324	
1973	-1.36597	0.0463867	
1974	-1.36993	0.0231934	
1975	-1.37451	0.0238037	
1976	-1.37604	0.0442505	
1977	-1.38092	0.0663757	
1978	-1.38519	0.0794983	
1979	-1.38855	0.0820923	
1980	-1.39404	0.0747681	
1981	-1.39618	0.065155	
1982	-1.39984	0.0578308	
1983	-1.40289	0.0569153	
1984	-1.40594	0.0639343	
1985	-1.409	0.0741577	
1986	-1.41357	0.0843811	
1987	-1.41449	0.101318	
1988	-1.41541	0.115204	
1989	-1.41876	0.123749	
1990	-1.42029	0.137939	
1991	-1.42395	0.151825	
1992	-1.42365	0.154572	
1993	-1.42731	0.144348	
1994	-1.42914	0.121613	
1995	-1.43036	0.0891113	
1996	-1.43066	0.0636292	
1997	-1.43372	0.0564575	
1998	-1.43372	0.045929	
1999	-1.43372	0.0247192	
2000	-1.43768	0.0114441	
2001	-1.4386	0.00900269	
2002	-1.43921	0.000457764	
2003	-1.4386	-0.0132751	
2004	-1.4389	-0.0189209	
2005	-1.44135	-0.0132751	
2006	-1.44196	0.00656128	
2007	-1.43982	0.0422668	
2008	-1.44348	0.0822449	
2009	-1.44379	0.114136	
2010	-1.44379	0.144501	
2011	-1.44348	0.178375	
2012	-1.4444	0.204163	
2013	-1.44104	0.220184	
2014	-1.44287	0.2211	
2015	-1.44043	0.213928	
2016	-1.44104	0.210724	
2017	-1.44012	0.207367	
2018	-1.44012	0.202942	
2019	-1.4386	0.195007	
2020	-1.43768	0.174866	
2021	-1.43921	0.136261	
2022	-1.4386	0.0914001	
2023	-1.43829	0.0575256	
2024	-1.43921	0.04776	
2025	-1.43829	0.0552368	
2026	-1.43921	0.0701904	
2027	-1.4389	0.0897217	
2028	-1.4386	0.112305	
2029	-1.4389	0.125427	
2030	-1.43646	0.127411	
2031	-1.43555	0.131531	
2032	-1.43341	0.14389	
2033	-1.43372	0.160522	
2034	-1.4328	0.171814	
2035	-1.4325	0.173492	
2036	-1.4325	0.17334	
2037	-1.42975	0.16861	
2038	-1.42883	0.158844	
2039	-1.42548	0.149536	
2040	-1.42456	0.144653	
2041	-1.42426	0.143433	
2042	-1.42059	0.133362	
2043	-1.41937	0.113831	
2044	-1.41632	0.0941467	
2045	-1.41479	0.0782776	
2046	-1.41083	0.065155	
2047	-1.40961	0.0416565	
2048	-1.40442	0.0119019	
2049	-1.39801	-0.0215149	
2050	-1.39557	-0.0512695	
2051	-1.38947	-0.0753784	
2052	-1.38397	-0.0868225	
2053	-1.37909	-0.085144	
2054	-1.37543	-0.0756836	
2055	-1.36963	-0.0491333	
2056	-1.36047	-0.0134277	
2057	-1.35254	0.0135803	
2058	-1.34583	0.0314331	
2059	-1.33728	0.0376892	
2060	-1.32996	0.0294495	
2061	-1.32172	0.0149536	
2062	-1.31165	0.0144958	
2063	-1.30249	0.0346375	
2064	-1.29242	0.0582886	
2065	-1.28235	0.0671387	
2066	-1.27228	0.0621033	
2067	-1.26099	0.052948	
2068	-1.24939	0.0480652	
2069	-1.2381	0.0531006	
2070	-1.22498	0.0596619	
2071	-1.21277	0.0518799	
2072	-1.19995	0.0398254	
2073	-1.18591	0.0349426	
2074	-1.1734	0.0311279	
2075	-1.16089	0.0256348	
2076	-1.14655	0.0233459	
2077	-1.13098	0.0296021	
2078	-1.11725	0.0367737	
2079	-1.10291	0.0393677	
2080	-1.08948	0.0372314	
2081	-1.073	0.0378418	
2082	-1.05774	0.0434875	
2083	-1.04004	0.0521851	
2084	-1.02783	0.0636292	
2085	-1.01013	0.0737	
2086	-0.993958	0.0865173	
2087	-0.978394	0.10025	
2088	-0.960693	0.0973511	
2089	-0.942078	0.0822449	
2090	-0.926514	0.072937	
2091	-0.907288	0.0790405	
2092	-0.889893	0.0894165	
2093	-0.87616	0.0904846	
2094	-0.857849	0.0930786	
2095	-0.838318	0.105743	
2096	-0.822754	0.122681	
2097	-0.80658	0.133514	
2098	-0.788269	0.13092	
2099	-0.772705	0.124359	
2100	-0.754089	0.120392	
2101	-0.736084	0.113525	
2102	-0.72052	0.107422	
2103	-0.700378	0.0973511	
2104	-0.684814	0.0846863	
2105	-0.667725	0.0706482	
2106	-0.65155	0.0668335	
2107	-0.632324	0.0741577	
2108	-0.613403	0.0796509	
2109	-0.596619	0.0798035	
2110	-0.578613	0.0724792	
2111	-0.561218	0.062561	
2112	-0.540771	0.0527954	
2113	-0.524292	0.0456238	
2114	-0.505676	0.0430298	
2115	-0.489197	0.0413513	
2116	-0.471497	0.0384521	
2117	-0.450439	0.030365	
2118	-0.435486	0.0198364	
2119	-0.417175	0.0196838	
2120	-0.39856	0.0231934	
2121	-0.382385	0.0247192	
2122	-0.366821	0.038147	
2123	-0.3479	0.0689697	
2124	-0.329285	0.104065	
2125	-0.314331	0.125275	
2126	-0.296326	0.139313	
2127	-0.279846	0.152435	
2128	-0.261536	0.166321	
2129	-0.245056	0.175781	
2130	-0.227051	0.180206	
2131	-0.211182	0.174561	
2132	-0.193176	0.144348	
2133	-0.176697	0.0894165	
2134	-0.158386	0.0360107	
2135	-0.144348	0.00152588	
2136	-0.129395	-0.0186157	
2137	-0.113525	-0.0378418	
2138	-0.0949097	-0.0576782	
2139	-0.0802612	-0.078125	
2140	-0.0653076	-0.0886536	
2141	-0.0497437	-0.083313	
2142	-0.0332642	-0.0662231	
2143	-0.0170898	-0.0410461	
2144	-0.00152588	-0.0224304	
2145	0.0125122	-0.0132751	
2146	0.027771	-0.01297	
2147	0.0427246	-0.0204468	
2148	0.0585938	-0.03479	
2149	0.0738525	-0.0578308	
2150	0.0866699	-0.0856018	
2151	0.101013	-0.104675	
2152	0.117188	-0.115662	
2153	0.132141	-0.119019	
2154	0.14679	-0.109863	
2155	0.159912	-0.0871277	
2156	0.174255	-0.0543213	
2157	0.188599	-0.0227356	
2158	0.203247	0.00457764	
2159	0.215454	0.0392151	
2160	0.229492	0.0982666	
2161	0.243225	0.169678	
2162	0.257263	0.233154	
2163	0.26886	0.282288	
2164	0.281677	0.318298	
2165	0.296021	0.354309	
2166	0.307007	0.378571	
2167	0.320435	0.379028	
2168	0.332642	0.344238	
2169	0.346985	0.282898	
2170	0.357056	0.222321	
2171	0.369568	0.159607	
2172	0.384216	0.0738525	
2173	0.396423	-0.0213623	
2174	0.404968	-0.100708	
2175	0.415344	-0.149841	
2176	0.428162	-0.174561	
2177	0.440063	-0.189972	
2178	0.45166	-0.188599	
2179	0.463867	-0.165253	
2180	0.473633	-0.12619	
2181	0.483398	-0.0866699	
2182	0.492859	-0.0579834	
2183	0.504761	-0.0372314	
2184	0.516663	-0.0100708	
2185	0.527344	0.0230408	
2186	0.537109	0.0521851	
2187	0.54718	0.0775146	
2188	0.557556	0.0840759	
2189	0.567017	0.0776672	
2190	0.575562	0.0570679	
2191	0.585327	0.035553	
2192	0.594788	0.0233459	
2193	0.601501	0.0164795	
2194	0.613708	0.00747681	
2195	0.62439	-0.0088501	
2196	0.632629	-0.0253296	
2197	0.639954	-0.0335693	
2198	0.650024	-0.0314331	
2199	0.660095	-0.0273132	
2200	0.666504	-0.0273132	
2201	0.674744	-0.0302124	
2202	0.682983	-0.0288391	
2203	0.692444	-0.017395	
2204	0.700073	0.00320435	
2205	0.707397	0.0187683	
2206	0.716553	0.0250244	
2207	0.723877	0.0361633	
2208	0.733643	0.0578308	
2209	0.739136	0.0782776	
2210	0.748291	0.0856018	
2211	0.754395	0.0753784	
2212	0.762939	0.0700378	
2213	0.768738	0.0733948	
2214	0.777283	0.0775146	
2215	0.782776	0.0773621	
2216	0.791626	0.072937	
2217	0.801086	0.0720215	
2218	0.805969	0.0761414	
2219	0.814209	0.0778198	
2220	0.820923	0.083313	
2221	0.825806	0.105743	
2222	0.831299	0.139313	
2223	0.837097	0.164948	
2224	0.845032	0.176392	
2225	0.849915	0.192108	
2226	0.855103	0.207672	
2227	0.861206	0.216522	
2228	0.864868	0.217896	
2229	0.871277	0.214233	
2230	0.879822	0.198517	
2231	0.884399	0.171661	
2232	0.890198	0.137482	
2233	0.895081	0.106659	
2234	0.899353	0.0878906	
2235	0.905151	0.0810242	
2236	0.909729	0.0848389	
2237	0.915833	0.0854492	
2238	0.920715	0.0827026	
2239	0.924377	0.0834656	
2240	0.92926	0.0909424	
2241	0.934753	0.098114	
2242	0.938416	0.104523	
2243	0.943298	0.104675	
2244	0.94574	0.098114	
2245	0.950012	0.0787354	
2246	0.953979	0.0537109	
2247	0.9552	0.0288391	
2248	0.958252	0.0160217	
2249	0.96283	0.0184631	
2250	0.965271	0.0256348	
2251	0.969849	0.0320435	
2252	0.973511	0.0460815	
2253	0.973816	0.0737	
2254	0.978088	0.102234	
2255	0.981445	0.117798	
2256	0.982666	0.123138	
2257	0.984192	0.13031	
2258	0.988464	0.14267	
2259	0.991516	0.157166	
2260	0.99762	0.172424	
2261	0.99823	0.1828	
2262	1.0025	0.184784	
2263	1.00403	0.178833	
2264	1.0083	0.163269	
2265	1.01135	0.149994	
2266	1.0141	0.13504	
2267	1.01807	0.120697	
2268	1.01837	0.108032	
2269	1.02264	0.0994873	
2270	1.02386	0.0888062	
2271	1.02875	0.0735474	
2272	1.03241	0.0576782	
2273	1.03363	0.04776	
2274	1.03699	0.0364685	
2275	1.03851	0.0260925	
2276	1.04187	0.0137329	
2277	1.04218	-0.00167847	
2278	1.04584	-0.015564	
2279	1.05042	-0.0309753	
2280	1.05225	-0.0485229	
2281	1.05164	-0.0480652	
2282	1.05621	-0.0300598	
2283	1.05713	-0.015564	
2284	1.06079	-0.0114441	
2285	1.06201	-0.00610352	
2286	1.06537	0.00350952	
2287	1.06659	0.0180054	
2288	1.06812	0.0271606	
2289	1.07086	0.0341797	
2290	1.073	0.0395203	
2291	1.07605	0.0389099	
2292	1.08063	0.0283813	
2293	1.08185	0.0105286	
2294	1.08612	-0.0227356	
2295	1.08826	-0.0621033	
2296	1.091	-0.101013	
2297	1.09528	-0.126953	
2298	1.09711	-0.140076	
2299	1.10077	-0.149689	
2300	1.10168	-0.160675	
2301	1.10657	-0.164032	
2302	1.10992	-0.160065	
2303	1.11176	-0.149536	
2304	1.11877	-0.139618	
2305	1.12061	-0.144501	
2306	1.12427	-0.16571	
2307	1.12946	-0.19104	
2308	1.13068	-0.210876	
2309	1.13434	-0.225525	
2310	1.13953	-0.239563	
2311	1.1438	-0.253906	
2312	1.14838	-0.254364	
2313	1.15112	-0.237579	
2314	1.15479	-0.214691	
2315	1.15845	-0.195618	
2316	1.16425	-0.18219	
2317	1.16821	-0.171661	
2318	1.1734	-0.170746	
2319	1.17828	-0.179291	
2320	1.18042	-0.189056	
2321	1.1853	-0.197144	
2322	1.19019	-0.197754	
2323	1.19476	-0.191345	
2324	1.19965	-0.182953	
2325	1.20361	-0.169678	
2326	1.20972	-0.15625	
2327	1.2146	-0.143738	
2328	1.21887	-0.129852	
2329	1.22314	-0.118561	
2330	1.22711	-0.107269	
2331	1.2323	-0.0886536	
2332	1.23688	-0.0527954	
2333	1.24207	-0.00915527	
2334	1.24695	0.0250244	
2335	1.25183	0.0468445	
2336	1.25458	0.058136	
2337	1.25854	0.055542	
2338	1.26404	0.0369263	
2339	1.26709	0.0140381	
2340	1.27136	-0.00137329	
2341	1.27655	-0.00930786	
2342	1.28082	-0.020752	
2343	1.28601	-0.0390625	
2344	1.2912	-0.0617981	
2345	1.29181	-0.0782776	
2346	1.29639	-0.0848389	
2347	1.30219	-0.0791931	
2348	1.30676	-0.0669861	
2349	1.30768	-0.0442505	
2350	1.31256	-0.0167847	
2351	1.31683	0.00762939	
2352	1.3205	0.0315857	
2353	1.32019	0.0543213	
2354	1.32538	0.0776672	
2355	1.3266	0.103912	
2356	1.32965	0.125122	
2357	1.3324	0.131989	
2358	1.33575	0.11734	
2359	1.33911	0.0917053	
2360	1.34186	0.0663757	
2361	1.34552	0.0544739	
2362	1.34644	0.0617981	
2363	1.3501	0.0846863	
2364	1.35101	0.105286	
2365	1.35468	0.123596	
2366	1.35468	0.136414	
2367	1.35651	0.133972	
2368	1.35986	0.106659	
2369	1.36139	0.0611877	
2370	1.36566	-0.0050354	
2371	1.36505	-0.0712585	
2372	1.36536	-0.129089	
2373	1.3681	-0.179901	
2374	1.36963	-0.210876	
2375	1.37085	-0.227814	
2376	1.37024	-0.235596	
2377	1.37421	-0.227661	
2378	1.37543	-0.208588	
2379	1.37543	-0.184479	
2380	1.37573	-0.154266	
2381	1.38	-0.120239	
2382	1.38	-0.0952148	
2383	1.38	-0.0779724	
2384	1.38031	-0.0640869	
2385	1.38367	-0.057373	
2386	1.38428	-0.0474548	
2387	1.38519	-0.0392151	
2388	1.38489	-0.0404358	
2389	1.38611	-0.0466919	
2390	1.38947	-0.0498962	
2391	1.38977	-0.0462341	
2392	1.38977	-0.0462341	
2393	1.39099	-0.0474548	
2394	1.39496	-0.038147	
2395	1.39465	-0.0218201	
2396	1.39496	0.00610352	
2397	1.39923	0.0506592	
2398	1.39954	0.11322	
2399	1.40137	0.182953	
2400	1.40411	0.241089	
2401	1.40533	0.276337	
2402	1.40442	0.29129	
2403	1.40564	0.27832	
2404	1.40961	0.235291	
2405	1.40961	0.16449	
2406	1.40991	0.0759888	
2407	1.40961	-0.0126648	
2408	1.40991	-0.0746155	
2409	1.41144	-0.109253	
2410	1.41449	-0.123291	
2411	1.41418	-0.125275	
2412	1.41449	-0.115967	
2413	1.41479	-0.10437	
2414	1.41449	-0.0918579	
2415	1.41418	-0.0772095	
2416	1.41388	-0.0654602	
2417	1.41449	-0.0608826	
2418	1.41418	-0.0692749	
2419	1.41754	-0.0965881	
2420	1.41876	-0.13504	
2421	1.4151	-0.160065	
2422	1.41632	-0.170288	
2423	1.41418	-0.178986	
2424	1.41815	-0.183716	
2425	1.41541	-0.190887	
2426	1.41663	-0.188141	
2427	1.41632	-0.163269	
2428	1.41541	-0.125275	
2429	1.4151	-0.0848389	
2430	1.41388	-0.0421143	
2431	1.41388	-0.00610352	
2432	1.41479	0.020752	
2433	1.41418	0.0419617	
2434	1.41418	0.0572205	
2435	1.41449	0.0698853	
2436	1.41388	0.0776672	
2437	1.41327	0.0920105	
2438	1.40991	0.112305	
2439	1.4093	0.126495	
2440	1.4093	0.131378	
2441	1.40808	0.130768	
2442	1.40778	0.123749	
2443	1.40503	0.114136	
2444	1.40533	0.103149	
2445	1.40045	0.0883484	
2446	1.39862	0.0752258	
2447	1.39496	0.0650024	
2448	1.39435	0.0500488	
2449	1.39496	0.0328064	
2450	1.39374	0.0354004	
2451	1.39038	0.0437927	
2452	1.38824	0.0462341	
2453	1.38489	0.0431824	
2454	1.3858	0.0354004	
2455	1.38458	0.0112915	
2456	1.38184	-0.0163269	
2457	1.38031	-0.0338745	
2458	1.37817	-0.0509644	
2459	1.38	-0.0920105	
2460	1.37634	-0.156097	
2461	1.37543	-0.216064	
2462	1.37115	-0.265808	
2463	1.36932	-0.298462	
2464	1.36841	-0.312042	
2465	1.36505	-0.304871	
2466	1.362	-0.289764	
2467	1.35925	-0.26001	
2468	1.3562	-0.211029	
2469	1.35529	-0.16037	
2470	1.35254	-0.12558	
2471	1.35071	-0.0985718	
2472	1.3501	-0.0852966	
2473	1.34552	-0.0985718	
2474	1.34583	-0.143585	
2475	1.34247	-0.222778	
2476	1.34064	-0.316467	
2477	1.34155	-0.39978	
2478	1.33698	-0.464783	
2479	1.33606	-0.508575	
2480	1.33545	-0.539398	
2481	1.33209	-0.549622	
2482	1.32904	-0.537872	
2483	1.32629	-0.505371	
2484	1.32568	-0.458832	
2485	1.32172	-0.407104	
2486	1.32111	-0.362091	
2487	1.31714	-0.315704	
2488	1.31317	-0.269623	
2489	1.31042	-0.21225	
2490	1.30585	-0.136261	
2491	1.30157	-0.0497437	
2492	1.30096	0.0361633	
2493	1.2973	0.096283	
2494	1.29364	0.109558	
2495	1.2912	0.0717163	
2496	1.28723	0.00350952	
2497	1.28387	-0.0845337	
2498	1.28082	-0.173798	
2499	1.27777	-0.250397	
2500	1.2735	-0.313568	
2501	1.27197	-0.362244	
2502	1.26862	-0.385284	
2503	1.26617	-0.389557	
2504	1.26282	-0.380402	
2505	1.25946	-0.364685	
2506	1.25702	-0.341187	
2507	1.25305	-0.319366	
2508	1.24908	-0.314331	
2509	1.24756	-0.327301	
2510	1.23962	-0.353546	
2511	1.2384	-0.382233	
2512	1.23505	-0.385742	
2513	1.22955	-0.35614	
2514	1.22772	-0.318909	
2515	1.22406	-0.292053	
2516	1.22009	-0.272064	
2517	1.21826	-0.240021	
2518	1.2146	-0.186615	
2519	1.21033	-0.125427	
2520	1.20514	-0.0646973	
2521	1.20331	-0.0305176	
2522	1.19965	-0.0335693	
2523	1.19537	-0.0630188	
2524	1.19049	-0.109253	
2525	1.18805	-0.15686	
2526	1.18347	-0.192108	
2527	1.17981	-0.204926	
2528	1.17554	-0.201111	
2529	1.17096	-0.19455	
2530	1.16608	-0.189056	
2531	1.16364	-0.189514	
2532	1.15936	-0.19104	
2533	1.15417	-0.187378	
2534	1.14899	-0.172729	
2535	1.14441	-0.142822	
2536	1.13678	-0.118713	
2537	1.13464	-0.112762	
2538	1.12915	-0.0968933	
2539	1.12213	-0.0628662	
2540	1.11694	-0.0376892	
2541	1.1142	-0.0335693	
2542	1.10657	-0.04776	
2543	1.1026	-0.0682068	
2544	1.09711	-0.0921631	
2545	1.09131	-0.116882	
2546	1.08673	-0.137482	
2547	1.07758	-0.154572	
2548	1.073	-0.163116	
2549	1.0672	-0.163116	
2550	1.06293	-0.165405	
2551	1.05652	-0.177155	
2552	1.05164	-0.191956	
2553	1.0437	-0.207825	
2554	1.0379	-0.215912	
2555	1.03241	-0.225677	
2556	1.02631	-0.23407	
2557	1.02234	-0.231171	
2558	1.0144	-0.223999	
2559	1.008	-0.228271	
2560	1.00311	-0.235291	
2561	1.00006	-0.237579	
2562	0.993347	-0.234222	
2563	0.987854	-0.216217	
2564	0.984192	-0.18692	
2565	0.977783	-0.157776	
2566	0.9729	-0.133057	
2567	0.968323	-0.111389	
2568	0.96344	-0.0909424	
2569	0.959167	-0.0675964	
2570	0.954895	-0.0553894	
2571	0.950012	-0.0512695	
2572	0.943604	-0.0474548	
2573	0.938416	-0.0247192	
2574	0.931091	0.0128174	
2575	0.924988	0.0447083	
2576	0.919189	0.065918	
2577	0.914307	0.0939941	
2578	0.910034	0.133972	
2579	0.901794	0.177155	
2580	0.895996	0.204163	
2581	0.889587	0.210876	
2582	0.882263	0.201111	
2583	0.87677	0.170593	
2584	0.86731	0.130157	
2585	0.862122	0.0709534	
2586	0.855713	-0.0137329	
2587	0.848694	-0.105896	
2588	0.840454	-0.175934	
2589	0.832825	-0.222168	
2590	0.827332	-0.261688	
2591	0.821228	-0.298309	
2592	0.812378	-0.299988	
2593	0.80658	-0.26825	
2594	0.797729	-0.217438	
2595	0.791321	-0.144653	
2596	0.783997	-0.0509644	
2597	0.778809	0.0401306	
2598	0.768127	0.112457	
2599	0.762329	0.162201	
2600	0.753479	0.190277	
2601	0.745239	0.197144	
2602	0.738831	0.187225	
2603	0.729065	0.167084	
2604	0.72052	0.140533	
2605	0.714722	0.11322	
2606	0.706177	0.087738	
2607	0.699463	0.0572205	
2608	0.691223	0.01297	
2609	0.68512	-0.042572	
2610	0.675354	-0.0891113	
2611	0.668945	-0.118408	
2612	0.661011	-0.121307	
2613	0.650635	-0.112762	
2614	0.64209	-0.109406	
2615	0.636292	-0.110779	
2616	0.626526	-0.117493	
2617	0.617981	-0.115051	
2618	0.608826	-0.105896	
2619	0.601196	-0.080719	
2620	0.591431	-0.0395203	
2621	0.582581	-0.00427246	
2622	0.572205	0.0241089	
2623	0.563049	0.0561523	
2624	0.552979	0.0933838	
2625	0.542603	0.133514	
2626	0.533142	0.180206	
2627	0.523682	0.236359	
2628	0.513916	0.287476	
2629	0.504456	0.322723	
2630	0.49408	0.341339	
2631	0.483704	0.341187	
2632	0.474854	0.319824	
2633	0.465088	0.279388	
2634	0.455017	0.22644	
2635	0.446167	0.162201	
2636	0.435791	0.083313	
2637	0.425415	0.0137329	
2638	0.41626	-0.0357056	
2639	0.403748	-0.0460815	
2640	0.392761	-0.0289917	
2641	0.38147	-0.00534058	
2642	0.372314	0.0134277	
2643	0.360718	0.0253296	
2644	0.34729	0.0311279	
2645	0.337219	0.0297546	
2646	0.328064	0.0239563	
2647	0.318298	0.00106812	
2648	0.307922	-0.022583	
2649	0.296936	-0.0411987	
2650	0.284424	-0.0474548	
2651	0.274658	-0.0352478	
2652	0.265198	-0.0154114	
2653	0.253906	-0.01297	
2654	0.247192	-0.01297	
2655	0.234985	0.00137329	
2656	0.223999	0.0276184	
2657	0.215149	0.0634766	
2658	0.207825	0.0991821	
2659	0.196533	0.121613	
2660	0.190735	0.129089	
2661	0.180664	0.130463	
2662	0.171204	0.134735	
2663	0.161438	0.137177	
2664	0.152588	0.131531	
2665	0.146484	0.109558	
2666	0.137024	0.0817871	
2667	0.13092	0.0587463	
2668	0.122375	0.0473022	
2669	0.11261	0.0479126	
2670	0.105591	0.0532532	
2671	0.101318	0.0526428	
2672	0.0927734	0.0453186	
2673	0.0839233	0.0382996	
2674	0.0790405	0.0358582	
2675	0.0744629	0.0314331	
2676	0.0683594	0.0256348	
2677	0.0637817	0.0212097	
2678	0.0582886	0.0175476	
2679	0.0543213	0.0180054	
2680	0.050354	0.0248718	
2681	0.045166	0.0337219	
2682	0.039978	0.0338745	
2683	0.0350952	0.0259399	
2684	0.0326538	0.0143433	
2685	0.0289917	0.00305176	
2686	0.0256348	0.000152588	
2687	0.0241089	0.00274658	
2688	0.0234985	0.0114441	
2689	0.0198364	0.0196838	
2690	0.0198364	0.00656128	
2691	0.015564	-0.0170898	
2692	0.0140381	-0.0231934	
2693	0.0146484	-0.0157166	
2694	0.0137329	-0.0233459	
2695	0.0143433	-0.0396729	
2696	0.0146484	-0.0471497	
2697	0.0140381	-0.0479126	
2698	0.0140381	-0.0456238	
2699	0.0146484	-0.0550842	
2700	0.0146484	-0.0761414	
2701	0.017395	-0.112152	
2702	0.0195313	-0.160522	
2703	0.0204468	-0.205688	
2704	0.0241089	-0.223846	
2705	0.0274658	-0.228577	
2706	0.0326538	-0.255432	
2707	0.0354004	-0.304108	
2708	0.0393677	-0.348358	
2709	0.0436401	-0.350952	
2710	0.0485229	-0.294952	
2711	0.057373	-0.209351	
2712	0.0598145	-0.146942	
2713	0.0671387	-0.12558	
2714	0.0720215	-0.118866	
2715	0.0778198	-0.105438	
2716	0.083313	-0.0822449	
2717	0.0915527	-0.0473022	
2718	0.0979614	-0.00732422	
2719	0.106201	0.0273132	
2720	0.11322	0.0511169	
2721	0.121155	0.0767517	
2722	0.128479	0.0935364	
2723	0.136719	0.0933838	
2724	0.146484	0.0946045	
2725	0.154419	0.0994873	
2726	0.160522	0.096283	
2727	0.169983	0.0862122	
2728	0.178833	0.0727844	
2729	0.184937	0.0608826	
2730	0.193481	0.0445557	
2731	0.204773	0.0248718	
2732	0.212708	0.00564575	
2733	0.219421	-0.00976563	
2734	0.229492	-0.0201416	
2735	0.23468	-0.032196	
2736	0.24353	-0.0393677	
2737	0.251465	-0.0453186	
2738	0.258789	-0.0538635	
2739	0.267029	-0.06073	
2740	0.274048	-0.0714111	
2741	0.281982	-0.0804138	
2742	0.288086	-0.0944519	
2743	0.294189	-0.110168	
2744	0.301819	-0.120697	
2745	0.306396	-0.130768	
2746	0.312195	-0.136719	
2747	0.320435	-0.136108	
2748	0.326843	-0.136719	
2749	0.332947	-0.135498	
2750	0.338135	-0.130615	
2751	0.345154	-0.130615	
2752	0.350647	-0.13855	
2753	0.352478	-0.153351	
2754	0.357361	-0.173798	
2755	0.365601	-0.19455	
2756	0.370178	-0.207977	
2757	0.372009	-0.210419	
2758	0.376892	-0.213623	
2759	0.384521	-0.21759	
2760	0.387268	-0.215302	
2761	0.390625	-0.218811	
2762	0.391846	-0.227661	
2763	0.397034	-0.230255	
2764	0.401001	-0.223541	
2765	0.404663	-0.211639	
2766	0.405579	-0.200653	
2767	0.409241	-0.193024	
2768	0.410767	-0.191956	
2769	0.411987	-0.196228	
2770	0.415039	-0.199127	
2771	0.418701	-0.207367	
2772	0.421143	-0.227966	
2773	0.424805	-0.265961	
2774	0.426636	-0.294037	
2775	0.429382	-0.290527	
2776	0.430603	-0.267639	
2777	0.433655	-0.249634	
2778	0.435486	-0.245819	
2779	0.436707	-0.252686	
2780	0.438538	-0.26413	
2781	0.440063	-0.27771	
2782	0.441284	-0.289917	
2783	0.445557	-0.295715	
2784	0.445251	-0.29892	
2785	0.444641	-0.305023	
2786	0.447083	-0.311584	
2787	0.448303	-0.313263	
2788	0.449524	-0.3125	
2789	0.449829	-0.305481	
2790	0.451355	-0.293579	
2791	0.454407	-0.28656	
2792	0.455017	-0.285339	
2793	0.455322	-0.289001	
2794	0.458374	-0.297241	
2795	0.45929	-0.305786	
2796	0.460815	-0.310669	
2797	0.465088	-0.305481	
2798	0.464478	-0.293732	
2799	0.467529	-0.287018	
2800	0.469971	-0.289307	
2801	0.470276	-0.296478	
2802	0.474243	-0.298309	
2803	0.474548	-0.292664	
2804	0.476074	-0.289154	
2805	0.4776	-0.289154	
2806	0.478821	-0.282593	
2807	0.482178	-0.273285	
2808	0.483704	-0.267639	
2809	0.487366	-0.272675	
2810	0.488586	-0.284119	
2811	0.490112	-0.290833	
2812	0.493469	-0.295105	
2813	0.4953	-0.305328	
2814	0.498047	-0.319672	
2815	0.499573	-0.331268	
2816	0.503235	-0.346985	
2817	0.50354	-0.366516	
2818	0.506897	-0.380096	
2819	0.508423	-0.388641	
2820	0.51178	-0.383759	
2821	0.514832	-0.371399	
2822	0.517883	-0.353088	
2823	0.518494	-0.331879	
2824	0.523376	-0.308533	
2825	0.526428	-0.284576	
2826	0.529175	-0.269775	
2827	0.533447	-0.260773	
2828	0.53772	-0.254669	
2829	0.539246	-0.248566	
2830	0.543518	-0.242462	
2831	0.54718	-0.2388	
2832	0.551147	-0.248413	
2833	0.553894	-0.258331	
2834	0.558472	-0.261536	
2835	0.563354	-0.285339	
2836	0.567322	-0.333862	
2837	0.571594	-0.399933	
2838	0.573425	-0.460663	
2839	0.577087	-0.485535	
2840	0.578308	-0.468445	
2841	0.582886	-0.423737	
2842	0.584106	-0.376129	
2843	0.586548	-0.351868	
2844	0.591125	-0.341492	
2845	0.593567	-0.311584	
2846	0.596924	-0.269318	
2847	0.596924	-0.22934	
2848	0.601196	-0.192566	
2849	0.603027	-0.165863	
2850	0.606689	-0.14389	
2851	0.606384	-0.118256	
2852	0.606689	-0.0997925	
2853	0.610657	-0.0875854	
2854	0.611572	-0.0764465	
2855	0.612488	-0.0733948	
2856	0.61615	-0.0849915	
2857	0.615845	-0.122833	
2858	0.617371	-0.183105	
2859	0.621033	-0.242157	
2860	0.621643	-0.280609	
2861	0.625	-0.29068	
2862	0.625916	-0.293579	
2863	0.625916	-0.296783	
2864	0.629578	-0.298767	
2865	0.631104	-0.299988	
2866	0.632324	-0.293274	
2867	0.63324	-0.278931	
2868	0.635376	-0.247192	
2869	0.635376	-0.196838	
2870	0.639648	-0.142059	
2871	0.640564	-0.0889587	
2872	0.640564	-0.0442505	
2873	0.640564	-0.0109863	
2874	0.644531	0.00656128	
2875	0.645447	0.0062561	
2876	0.645447	-0.0128174	
2877	0.649414	-0.0430298	
2878	0.650024	-0.0712585	
2879	0.651245	-0.0840759	
2880	0.656433	-0.0898743	
2881	0.65918	-0.0953674	
2882	0.65918	-0.107269	
2883	0.664368	-0.116272	
2884	0.665283	-0.118561	
2885	0.666504	-0.128326	
2886	0.669556	-0.155792	
2887	0.673828	-0.181274	
2888	0.675964	-0.19455	
2889	0.680237	-0.192413	
2890	0.68512	-0.184631	
2891	0.687256	-0.174255	
2892	0.690613	-0.148621	
2893	0.69458	-0.115814	
2894	0.698547	-0.0907898	
2895	0.699768	-0.0776672	
2896	0.704956	-0.0648499	
2897	0.709229	-0.0517273	
2898	0.712891	-0.0408936	
2899	0.717773	-0.0366211	
2900	0.71991	-0.0364685	
2901	0.724487	-0.0338745	
2902	0.72876	-0.0215149	
2903	0.732422	0.00244141	
2904	0.73761	0.0280762	
2905	0.739441	0.0495911	
2906	0.743408	0.0675964	
2907	0.74707	0.0782776	
2908	0.749512	0.0726318	
2909	0.754089	0.06073	
2910	0.759888	0.0563049	
2911	0.762634	0.0559998	
2912	0.766907	0.0596619	
2913	0.769348	0.0660706	
2914	0.77301	0.0732422	
2915	0.776062	0.0672913	
2916	0.78125	0.0311279	
2917	0.783386	-0.0209045	
2918	0.787048	-0.0868225	
2919	0.791321	-0.170898	
2920	0.791931	-0.23819	
2921	0.796204	-0.26886	
2922	0.801086	-0.26535	
2923	0.803528	-0.242462	
2924	0.806274	-0.20874	
2925	0.809937	-0.1651	
2926	0.81604	-0.121307	
2927	0.817566	-0.0709534	
2928	0.821838	-0.0138855	
2929	0.821228	0.0401306	
2930	0.8255	0.0874329	
2931	0.827942	0.122528	
2932	0.832214	0.151062	
2933	0.836487	0.171967	
2934	0.839844	0.185089	
2935	0.842285	0.191498	
2936	0.846558	0.189209	
2937	0.849609	0.172272	
2938	0.851746	0.149994	
2939	0.859375	0.12619	
2940	0.861511	0.109558	
2941	0.867004	0.100555	
2942	0.871887	0.0840759	
2943	0.87738	0.0508118	
2944	0.881348	0.0146484	
2945	0.88623	-0.00427246	
2946	0.894165	-0.0109863	
2947	0.898743	-0.0209045	
2948	0.903931	-0.0323486	
2949	0.910034	-0.043335	
2950	0.916138	-0.0532532	
2951	0.921021	-0.0552368	
2952	0.926208	-0.0444031	
2953	0.931396	-0.0198364	
2954	0.936279	0.00961304	
2955	0.944519	0.0372314	
2956	0.946045	0.057373	
2957	0.953369	0.0798035	
2958	0.957642	0.107269	
2959	0.96405	0.135651	
2960	0.968628	0.153961	
2961	0.9729	0.166626	
2962	0.975037	0.175781	
2963	0.982361	0.18219	
2964	0.984802	0.180664	
2965	0.989075	0.175629	
2966	0.992737	0.168762	
2967	0.996094	0.165558	
2968	0.999451	0.160828	
2969	1.00311	0.155182	
2970	1.00677	0.146027	
2971	1.00952	0.140076	
2972	1.01257	0.141296	
2973	1.01379	0.145721	
2974	1.01807	0.144806	
2975	1.01929	0.140076	
2976	1.02203	0.130463	
2977	1.02417	0.11673	
2978	1.02875	0.108185	
2979	1.0321	0.105896	
2980	1.03363	0.109253	
2981	1.03729	0.110016	
2982	1.04156	0.115967	
2983	1.04248	0.121613	
2984	1.04614	0.122223	
2985	1.04858	0.119019	
2986	1.05133	0.113373	
2987	1.05347	0.108337	
2988	1.05652	0.101318	
2989	1.05743	0.0897217	
2990	1.0614	0.0866699	
2991	1.06201	0.0952148	
2992	1.06323	0.105438	
2993	1.06659	0.117645	
2994	1.06659	0.126038	
2995	1.07086	0.116577	
2996	1.07178	0.0924683	
2997	1.07269	0.068512	
2998	1.07666	0.0572205	
2999	1.07635	0.065918	
3000	1.08032	0.0872803	
3001	1.08124	0.106812	
3002	1.08582	0.114136	
3003	1.08673	0.107117	
3004	1.0907	0.0892639	
3005	1.09161	0.0724792	
3006	1.09467	0.0608826	
3007	1.09741	0.0544739	
3008	1.09741	0.0505066	
3009	1.10046	0.0422668	
3010	1.10443	0.0292969	
3011	1.10596	0.0219727	
3012	1.10931	0.0187683	
3013	1.11053	0.018158	
3014	1.11206	0.0262451	
3015	1.11542	0.0393677	
3016	1.11938	0.0521851	
3017	1.12122	0.067749	
3018	1.12152	0.0866699	
3019	1.12518	0.106201	
3020	1.1264	0.124207	
3021	1.13007	0.137177	
3022	1.13037	0.144653	
3023	1.1319	0.142822	
3024	1.13617	0.128632	
3025	1.1377	0.111237	
3026	1.13953	0.0878906	
3027	1.1438	0.0598145	
3028	1.14471	0.0453186	
3029	1.14899	0.0494385	
3030	1.15051	0.0561523	
3031	1.15326	0.0621033	
3032	1.15479	0.0730896	
3033	1.15845	0.0914001	
3034	1.1615	0.106506	
3035	1.16425	0.109711	
3036	1.16486	0.111237	
3037	1.16852	0.104218	
3038	1.17065	0.0813293	
3039	1.17401	0.0517273	
3040	1.17462	0.0222778	
3041	1.17798	0	
3042	1.17889	-0.00839233	
3043	1.18042	-0.000305176	
3044	1.18652	0.0204468	
3045	1.18866	0.0410461	
3046	1.19049	0.0610352	
3047	1.19415	0.0744629	
3048	1.19598	0.0888062	
3049	1.19904	0.103455	
3050	1.2027	0.11734	
3051	1.20544	0.124054	
3052	1.2088	0.12085	
3053	1.21246	0.108795	
3054	1.21521	0.0904846	
3055	1.21918	0.0694275	
3056	1.22314	0.0450134	
3057	1.22406	0.0152588	
3058	1.22742	-0.0125122	
3059	1.23199	-0.0263977	
3060	1.23322	-0.0262451	
3061	1.23749	-0.0218201	
3062	1.23962	-0.0204468	
3063	1.24359	-0.0187683	
3064	1.24725	-0.010376	
3065	1.25214	0.00427246	
3066	1.25336	0.0160217	
3067	1.25824	0.0134277	
3068	1.26221	0.0062561	
3069	1.26648	-0.0038147	
3070	1.26831	-0.0186157	
3071	1.27228	-0.0341797	
3072	1.27594	-0.0440979	
3073	1.27716	-0.0527954	
3074	1.28113	-0.0596619	
3075	1.28632	-0.0492859	
3076	1.28723	-0.0267029	
3077	1.29059	0.00366211	
3078	1.29364	0.0456238	
3079	1.2973	0.0938416	
3080	1.30066	0.141754	
3081	1.30341	0.179596	
3082	1.30676	0.211029	
3083	1.31073	0.237579	
3084	1.31226	0.260315	
3085	1.31592	0.273743	
3086	1.31744	0.272522	
3087	1.32172	0.264435	
3088	1.32538	0.263824	
3089	1.32996	0.2742	
3090	1.33209	0.284424	
3091	1.33667	0.292969	
3092	1.34125	0.306244	
3093	1.34613	0.315399	
3094	1.3504	0.323792	
3095	1.35468	0.332489	
3096	1.35559	0.343933	
3097	1.36047	0.35675	
3098	1.36505	0.363922	
3099	1.36902	0.356903	
3100	1.37421	0.347748	
3101	1.37573	0.345306	
3102	1.38153	0.343933	
3103	1.3858	0.334015	
3104	1.39008	0.322571	
3105	1.39343	0.314484	
3106	1.39648	0.304565	
3107	1.40076	0.291138	
3108	1.40503	0.278778	
3109	1.409	0.263062	
3110	1.41083	0.245514	
3111	1.41388	0.225677	
3112	1.41846	0.201263	
3113	1.41907	0.180664	
3114	1.42303	0.168152	
3115	1.42761	0.160522	
3116	1.42883	0.148621	
3117	1.43127	0.146942	
3118	1.43005	0.162811	
3119	1.43646	0.18158	
3120	1.43768	0.196838	
3121	1.44012	0.208282	
3122	1.44318	0.217438	
3123	1.44379	0.221252	
3124	1.44745	0.214233	
3125	1.44867	0.205688	
3126	1.45264	0.206146	
3127	1.45386	0.201416	
3128	1.45447	0.180664	
3129	1.45599	0.154877	
3130	1.45721	0.135345	
3131	1.45996	0.111847	
3132	1.46301	0.0849915	
3133	1.46271	0.0772095	
3134	1.46332	0.0918579	
3135	1.46759	0.134888	
3136	1.4679	0.194855	
3137	1.46851	0.254211	
3138	1.4679	0.293274	
3139	1.46942	0.303497	
3140	1.47278	0.291138	
3141	1.47278	0.262451	
3142	1.47308	0.218201	
3143	1.47278	0.161896	
3144	1.474	0.106812	
3145	1.47339	0.0642395	
3146	1.47461	0.030365	
3147	1.47766	0.00183105	
3148	1.47461	-0.0187683	
3149	1.47705	-0.0411987	
3150	1.47858	-0.0498962	
3151	1.47797	-0.0405884	
3152	1.47797	-0.0267029	
3153	1.47766	-0.0202942	
3154	1.47736	-0.0192261	
3155	1.47827	-0.0204468	
3156	1.47797	-0.0257874	
3157	1.47858	-0.0354004	
3158	1.47827	-0.0439453	
3159	1.47827	-0.0572205	
3160	1.47766	-0.072937	
3161	1.47797	-0.0965881	
3162	1.47766	-0.131226	
3163	1.47766	-0.167694	
3164	1.47797	-0.194855	
3165	1.47797	-0.216827	
3166	1.47766	-0.231781	
3167	1.47797	-0.237885	
3168	1.48071	-0.246277	
3169	1.47888	-0.255737	
3170	1.47919	-0.25528	
3171	1.48132	-0.2388	
3172	1.48163	-0.213013	
3173	1.48224	-0.186157	
3174	1.48254	-0.15686	
3175	1.48315	-0.131378	
3176	1.48163	-0.115051	
3177	1.48041	-0.106812	
3178	1.48193	-0.0961304	
3179	1.48163	-0.0863647	
3180	1.48193	-0.0753784	
3181	1.48224	-0.0682068	
3182	1.48315	-0.0675964	
3183	1.48254	-0.0772095	
3184	1.48468	-0.0917053	
3185	1.48438	-0.0987244	
3186	1.48743	-0.0895691	
3187	1.48804	-0.0720215	
3188	1.48773	-0.0457764	
3189	1.48804	-0.00518799	
3190	1.49048	0.0468445	
3191	1.49048	0.0944519	
3192	1.49139	0.127258	
3193	1.49261	0.134125	
3194	1.49292	0.10849	
3195	1.48926	0.0558472	
3196	1.48895	-0.0167847	
3197	1.49231	-0.0996399	
3198	1.49261	-0.183716	
3199	1.49231	-0.259247	
3200	1.48773	-0.319672	
3201	1.48743	-0.354462	
3202	1.48743	-0.370331	
3203	1.48743	-0.383301	
3204	1.48773	-0.386658	
3205	1.48773	-0.359039	
3206	1.48651	-0.296478	
3207	1.48285	-0.230103	
3208	1.48315	-0.187836	
3209	1.48132	-0.16037	
3210	1.47736	-0.119476	
3211	1.474	-0.0553894	
3212	1.47156	0.0119019	
3213	1.4682	0.0428772	
3214	1.46698	0.0596619	
3215	1.46332	0.0627136	
3216	1.45935	0.0370789	
3217	1.45447	-0.00762939	
3218	1.45233	-0.0456238	
3219	1.44836	-0.0723267	
3220	1.44531	-0.0915527	
3221	1.43951	-0.105591	
3222	1.43555	-0.118866	
3223	1.43005	-0.134277	
3224	1.42944	-0.15213	
3225	1.42517	-0.167389	
3226	1.42334	-0.17868	
3227	1.41815	-0.183716	
3228	1.41418	-0.180664	
3229	1.4093	-0.15564	
3230	1.40594	-0.127258	
3231	1.4035	-0.106201	
3232	1.39832	-0.0970459	
3233	1.39343	-0.105286	
3234	1.39038	-0.132446	
3235	1.38611	-0.169525	
3236	1.38062	-0.211182	
3237	1.37665	-0.248413	
3238	1.37207	-0.273285	
3239	1.36688	-0.272217	
3240	1.36444	-0.253906	
3241	1.35651	-0.216064	
3242	1.35254	-0.167999	
3243	1.34613	-0.115051	
3244	1.34186	-0.0627136	
3245	1.33575	-0.0201416	
3246	1.33026	0.00610352	
3247	1.32324	0.00656128	
3248	1.3205	-0.022583	
3249	1.31378	-0.0624084	
3250	1.30676	-0.0991821	
3251	1.29822	-0.132751	
3252	1.29303	-0.16098	
3253	1.28754	-0.191498	
3254	1.28143	-0.229034	
3255	1.27655	-0.272369	
3256	1.26831	-0.319061	
3257	1.25977	-0.355682	
3258	1.25397	-0.351257	
3259	1.24786	-0.310516	
3260	1.24268	-0.256805	
3261	1.23413	-0.208893	
3262	1.22559	-0.171356	
3263	1.22009	-0.146942	
3264	1.21399	-0.128937	
3265	1.20789	-0.116577	
3266	1.19934	-0.108032	
3267	1.19049	-0.106201	
3268	1.18469	-0.117035	
3269	1.17859	-0.151978	
3270	1.17157	-0.191498	
3271	1.16638	-0.228882	
3272	1.15936	-0.255432	
3273	1.15356	-0.262604	
3274	1.14685	-0.237274	
3275	1.14136	-0.189362	
3276	1.13525	-0.139618	
3277	1.12976	-0.0987244	
3278	1.12183	-0.0701904	
3279	1.11969	-0.0537109	
3280	1.11237	-0.0479126	
3281	1.10931	-0.032196	
3282	1.10229	0.00839233	
3283	1.09741	0.0563049	
3284	1.09283	0.0999451	
3285	1.08795	0.133209	
3286	1.08521	0.157318	
3287	1.08063	0.175171	
3288	1.07544	0.183563	
3289	1.07208	0.163422	
3290	1.0672	0.108337	
3291	1.06262	0.0254822	
3292	1.05896	-0.0794983	
3293	1.05408	-0.188141	
3294	1.04828	-0.279388	
3295	1.04431	-0.341034	
3296	1.04034	-0.382233	
3297	1.03485	-0.40863	
3298	1.02905	-0.427551	
3299	1.02417	-0.421448	
3300	1.01898	-0.389252	
3301	1.01471	-0.333405	
3302	1.01013	-0.256805	
3303	1.00464	-0.173798	
3304	0.999451	-0.0991821	
3305	0.997925	-0.0413513	
3306	0.992126	0.00488281	
3307	0.987854	0.045166	
3308	0.983276	0.0865173	
3309	0.98053	0.113983	
3310	0.978088	0.106506	
3311	0.973816	0.0509644	
3312	0.970154	-0.0280762	
3313	0.967407	-0.106506	
3314	0.96405	-0.156555	
3315	0.960083	-0.172272	
3316	0.959167	-0.184631	
3317	0.959473	-0.199585	
3318	0.9552	-0.210571	
3319	0.95459	-0.216827	
3320	0.952759	-0.22583	
3321	0.950012	-0.2388	
3322	0.949097	-0.257263	
3323	0.949097	-0.27771	
3324	0.948486	-0.295105	
3325	0.948486	-0.302277	
3326	0.949097	-0.2948	
3327	0.948486	-0.275116	
3328	0.948792	-0.244446	
3329	0.948792	-0.214844	
3330	0.952759	-0.202026	
3331	0.953979	-0.20813	
3332	0.957336	-0.230713	
3333	0.961609	-0.250244	
3334	0.96283	-0.26474	
3335	0.967407	-0.276184	
3336	0.97229	-0.280304	
3337	0.977783	-0.271912	
3338	0.982361	-0.245972	
3339	0.984192	-0.207825	
3340	0.991821	-0.168457	
3341	0.99823	-0.131531	
3342	1.00677	-0.0953674	
3343	1.01166	-0.0611877	
3344	1.01776	-0.0288391	
3345	1.02722	-0.0062561	
3346	1.03729	-0.000610352	
3347	1.04584	0	
3348	1.05225	-0.00198364	
3349	1.06171	-0.0062561	
3350	1.07117	-0.0184631	
3351	1.08124	-0.0350952	
3352	1.091	-0.058136	
3353	1.10077	-0.100708	
3354	1.11053	-0.149231	
3355	1.11969	-0.192413	
3356	1.13342	-0.229034	
3357	1.14502	-0.261383	
3358	1.15479	-0.283508	
3359	1.16821	-0.296783	
3360	1.1792	-0.309601	
3361	1.18896	-0.322571	
3362	1.20209	-0.328369	
3363	1.21338	-0.332489	
3364	1.22711	-0.343018	
3365	1.23779	-0.352631	
3366	1.24878	-0.352173	
3367	1.26556	-0.343323	
3368	1.27747	-0.337372	
3369	1.29059	-0.339813	
3370	1.30157	-0.33493	
3371	1.315	-0.319366	
3372	1.32721	-0.299377	
3373	1.34003	-0.272827	
3374	1.35345	-0.250244	
3375	1.36566	-0.228119	
3376	1.3797	-0.204163	
3377	1.39282	-0.182343	
3378	1.40533	-0.166779	
3379	1.41876	-0.15213	
3380	1.4328	-0.121765	
3381	1.44348	-0.0663757	
3382	1.45691	0.00274658	
3383	1.46729	0.0561523	
3384	1.4801	0.0939941	
3385	1.492	0.12558	
3386	1.50177	0.161896	
3387	1.5155	0.196991	
3388	1.52649	0.218658	
3389	1.53687	0.206604	
3390	1.54633	0.149689	
3391	1.55945	0.0598145	
3392	1.56769	-0.0363159	
3393	1.5802	-0.110779	
3394	1.59058	-0.164032	
3395	1.60065	-0.205383	
3396	1.61041	-0.231171	
3397	1.61926	-0.248108	
3398	1.62933	-0.258331	
3399	1.63788	-0.258179	
3400	1.64398	-0.231323	
3401	1.65375	-0.198822	
3402	1.66351	-0.186768	
3403	1.66931	-0.187836	
3404	1.67816	-0.195923	
3405	1.68335	-0.199127	
3406	1.68945	-0.201416	
3407	1.69678	-0.211029	
3408	1.70288	-0.223236	
3409	1.70807	-0.232391	
3410	1.71204	-0.238037	
3411	1.71783	-0.240021	
3412	1.72272	-0.235901	
3413	1.72668	-0.226135	
3414	1.72729	-0.211182	
3415	1.73187	-0.183411	
3416	1.73218	-0.13916	
3417	1.73676	-0.0845337	
3418	1.73828	-0.0106812	
3419	1.73767	0.0811768	
3420	1.73737	0.171509	
3421	1.73767	0.249786	
3422	1.73676	0.313873	
3423	1.73309	0.359192	
3424	1.73187	0.384064	
3425	1.72699	0.38208	
3426	1.72272	0.357819	
3427	1.71661	0.31601	
3428	1.71204	0.265198	
3429	1.70471	0.209503	
3430	1.69922	0.158539	
3431	1.69006	0.114288	
3432	1.67908	0.0546265	
3433	1.66809	-0.0323486	
3434	1.65558	-0.133514	
3435	1.64124	-0.236816	
3436	1.62933	-0.313568	
3437	1.61194	-0.353546	
3438	1.59363	-0.371552	
3439	1.56769	-0.366516	
3440	1.54724	-0.339813	
3441	1.5271	-0.302124	
3442	1.50452	-0.256958	
3443	1.4798	-0.210114	
3444	1.45447	-0.162659	
3445	1.42914	-0.122528	
3446	1.40106	-0.100708	
3447	1.37115	-0.0924683	
3448	1.34216	-0.0770569	
3449	1.31317	-0.0434875	
3450	1.28204	-0.0209045	
3451	1.24847	-0.0163269	
3452	1.2146	-0.0146484	
3453	1.18225	0.00228882	
3454	1.14746	0.0474548	
3455	1.11328	0.11795	
3456	1.0791	0.211945	
3457	1.04401	0.311127	
3458	1.00616	0.391541	
3459	0.973816	0.440063	
3460	0.936584	0.449829	
3461	0.900574	0.422974	
3462	0.862427	0.367126	
3463	0.827026	0.289001	
3464	0.790405	0.184174	
3465	0.755005	0.0543213	
3466	0.719299	-0.0823975	
3467	0.682678	-0.202179	
3468	0.648193	-0.281982	
3469	0.616455	-0.312958	
3470	0.579834	-0.299835	
3471	0.545654	-0.255432	
3472	0.511169	-0.183868	
3473	0.47699	-0.0965881	
3474	0.4422	-0.0120544	
3475	0.40863	0.0561523	
3476	0.376587	0.0814819	
3477	0.343933	0.0694275	
3478	0.314026	0.0378418	
3479	0.280762	0.00335693	
3480	0.249023	-0.0283813	
3481	0.218506	-0.0613403	
3482	0.186462	-0.0946045	
3483	0.157166	-0.11795	
3484	0.127869	-0.117645	
3485	0.0985718	-0.113678	
3486	0.0701904	-0.132599	
3487	0.0402832	-0.164337	
3488	0.0106812	-0.180969	
3489	-0.0180054	-0.171814	
3490	-0.0476074	-0.149994	
3491	-0.0735474	-0.133362	
3492	-0.101624	-0.129852	
3493	-0.129395	-0.126648	
3494	-0.15564	-0.112762	
3495	-0.184326	-0.0921631	
3496	-0.210571	-0.0648499	
3497	-0.237427	-0.0386047	
3498	-0.262146	-0.0231934	
3499	-0.288086	-0.0219727	
3500	-0.313416	-0.0183105	
3501	-0.339966	-0.0111389	
3502	-0.365906	-0.00518799	
3503	-0.391541	0.00427246	
3504	-0.415955	0.0204468	
3505	-0.440063	0.0312805	
3506	-0.46814	0.0337219	
3507	-0.489502	0.0300598	
3508	-0.514221	0.032196	
3509	-0.538635	0.0427246	
3510	-0.562744	0.0505066	
3511	-0.587463	0.0521851	
3512	-0.611572	0.0506592	
3513	-0.635986	0.0382996	
3514	-0.658569	0.012207	
3515	-0.682678	-0.0135803	
3516	-0.707092	-0.032959	
3517	-0.72998	-0.0418091	
3518	-0.754089	-0.0398254	
3519	-0.778503	-0.0250244	
3520	-0.802917	-0.00244141	
3521	-0.8255	0.0260925	
3522	-0.853271	0.0656128	
3523	-0.875549	0.10788	
3524	-0.899963	0.140686	
3525	-0.925293	0.15625	
3526	-0.950012	0.158539	
3527	-0.973816	0.158691	
3528	-0.997925	0.168915	
3529	-1.02692	0.184784	
3530	-1.05042	0.187531	
3531	-1.07605	0.170288	
3532	-1.10016	0.140228	
3533	-1.12488	0.101776	
3534	-1.15021	0.0617981	
3535	-1.17798	0.0177002	
3536	-1.20392	-0.0387573	
3537	-1.22833	-0.125885	
3538	-1.25549	-0.235443	
3539	-1.28052	-0.339966	
3540	-1.30554	-0.416107	
3541	-1.33118	-0.446777	
3542	-1.35559	-0.442963	
3543	-1.38275	-0.429688	
3544	-1.40686	-0.431213	
3545	-1.4328	-0.429535	
3546	-1.45844	-0.413818	
3547	-1.48712	-0.396881	
3548	-1.51245	-0.391235	
3549	-1.53717	-0.381927	
3550	-1.56403	-0.357056	
3551	-1.58569	-0.326691	
3552	-1.61255	-0.319519	
3553	-1.63818	-0.330811	
3554	-1.66229	-0.33493	
3555	-1.68793	-0.309753	
3556	-1.71387	-0.258636	
3557	-1.73767	-0.192413	
3558	-1.76422	-0.11734	
3559	-1.78986	-0.0382996	
3560	-1.81427	0.0357056	
3561	-1.83624	0.0918579	
3562	-1.8634	0.122833	
3563	-1.88507	0.140381	
3564	-1.91162	0.152283	
3565	-1.93756	0.156403	
3566	-1.96228	0.150452	
3567	-1.98486	0.147552	
3568	-2.01019	0.154114	
3569	-2.03552	0.153503	
3570	-2.05963	0.128174	
3571	-2.0874	0.0907898	
3572	-2.10999	0.0566101	
3573	-2.1344	0.0238037	
3574	-2.16125	-0.0117493	
3575	-2.18384	-0.0439453	
3576	-2.21039	-0.0692749	
3577	-2.23511	-0.0907898	
3578	-2.25708	-0.114594	
3579	-2.28363	-0.132294	
3580	-2.30865	-0.143738	
3581	-2.33276	-0.152435	
3582	-2.35748	-0.166321	
3583	-2.38129	-0.182343	
3584	-2.40631	-0.197144	
3585	-2.42859	-0.203094	
3586	-2.45483	-0.19455	
3587	-2.47772	-0.176086	
3588	-2.50366	-0.167999	
3589	-2.52777	-0.174866	
3590	-2.5528	-0.185242	
3591	-2.5769	-0.190277	
3592	-2.59888	-0.189819	
3593	-2.62573	-0.185547	
3594	-2.64862	-0.180664	
3595	-2.67151	-0.175934	
3596	-2.6947	-0.172119	
3597	-2.71912	-0.174866	
3598	-2.74109	-0.184631	
3599	-2.76459	-0.19516	
3600	-2.78778	-0.210266	
3601	-2.80914	-0.2211	
3602	-2.83234	-0.224152	
3603	-2.85339	-0.219879	
3604	-2.87476	-0.215607	
3605	-2.89642	-0.216064	
3606	-2.91626	-0.222015	
3607	-2.94006	-0.220032	
3608	-2.95807	-0.216217	
3609	-2.97974	-0.223389	
3610	-2.99988	-0.24231	
3611	-3.01941	-0.265503	
3612	-3.03864	-0.2742	
3613	-3.05939	-0.260468	
3614	-3.07831	-0.235901	
3615	-3.09784	-0.214081	
3616	-3.1131	-0.199432	
3617	-3.13171	-0.191498	
3618	-3.15033	-0.193024	
3619	-3.1662	-0.196533	
3620	-3.18512	-0.207977	
3621	-3.20129	-0.232239	
3622	-3.21625	-0.282135	
3623	-3.2312	-0.361176	
3624	-3.24615	-0.441284	
3625	-3.26111	-0.492706	
3626	-3.27423	-0.515747	
3627	-3.28827	-0.517883	
3628	-3.29987	-0.483398	
3629	-3.31451	-0.412445	
3630	-3.32794	-0.328369	
3631	-3.33801	-0.252838	
3632	-3.34778	-0.194092	
3633	-3.35846	-0.148468	
3634	-3.36884	-0.114899	
3635	-3.3783	-0.0968933	
3636	-3.38806	-0.0814819	
3637	-3.39722	-0.0564575	
3638	-3.40637	-0.0270081	
3639	-3.41675	-0.00656128	
3640	-3.42346	0.0038147	
3641	-3.42987	0.000305176	
3642	-3.43292	-0.00808716	
3643	-3.44116	-0.0169373	
3644	-3.44727	-0.0305176	
3645	-3.45154	-0.0462341	
3646	-3.45551	-0.0552368	
3647	-3.46008	-0.0561523	
3648	-3.46191	-0.057373	
3649	-3.46558	-0.0680542	
3650	-3.4671	-0.0866699	
3651	-3.47168	-0.100555	
3652	-3.4726	-0.108337	
3653	-3.47565	-0.108795	
3654	-3.47504	-0.0976563	
3655	-3.47626	-0.0772095	
3656	-3.48022	-0.0595093	
3657	-3.47778	-0.0460815	
3658	-3.48022	-0.0384521	
3659	-3.48053	-0.0405884	
3660	-3.48022	-0.0463867	
3661	-3.48022	-0.0495911	
3662	-3.48022	-0.0550842	
3663	-3.47778	-0.0584412	
3664	-3.47656	-0.06073	
3665	-3.47504	-0.0631714	
3666	-3.47473	-0.0753784	
3667	-3.47107	-0.096283	
3668	-3.47107	-0.116577	
3669	-3.47076	-0.137329	
3670	-3.4671	-0.158081	
3671	-3.46405	-0.180969	
3672	-3.461	-0.213013	
3673	-3.45673	-0.242615	
3674	-3.45581	-0.250092	
3675	-3.45032	-0.236816	
3676	-3.44604	-0.225525	
3677	-3.44482	-0.220032	
3678	-3.44055	-0.218201	
3679	-3.43597	-0.222626	
3680	-3.43109	-0.234375	
3681	-3.4256	-0.242462	
3682	-3.42102	-0.237579	
3683	-3.41614	-0.207062	
3684	-3.41125	-0.167542	
3685	-3.40363	-0.12085	
3686	-3.39752	-0.0750732	
3687	-3.39172	-0.035553	
3688	-3.38287	0.000915527	
3689	-3.37738	0.0334167	
3690	-3.36823	0.0549316	
3691	-3.36151	0.0662231	
3692	-3.35358	0.072937	
3693	-3.34412	0.0813293	
3694	-3.33618	0.0880432	
3695	-3.32428	0.090332	
3696	-3.31757	0.0904846	
3697	-3.30933	0.0823975	
3698	-3.29834	0.0735474	
3699	-3.28491	0.0727844	
3700	-3.27545	0.0871277	
3701	-3.26477	0.106506	
3702	-3.255	0.122375	
3703	-3.24249	0.131683	
3704	-3.22998	0.14328	
3705	-3.21716	0.159454	
3706	-3.20618	0.184937	
3707	-3.19183	0.207062	
3708	-3.17871	0.220795	
3709	-3.1662	0.229797	
3710	-3.15155	0.235138	
3711	-3.13843	0.237122	
3712	-3.12469	0.235443	
3713	-3.11005	0.216217	
3714	-3.09479	0.183563	
3715	-3.08289	0.149689	
3716	-3.06885	0.113983	
3717	-3.0542	0.0721741	
3718	-3.03711	0.0328064	
3719	-3.02094	0.0138855	
3720	-3.00446	0.0146484	
3721	-2.9895	0.0166321	
3722	-2.97211	0.0215149	
3723	-2.95563	0.0354004	
3724	-2.94067	0.0469971	
3725	-2.92419	0.059967	
3726	-2.90894	0.068512	
3727	-2.89337	0.072937	
3728	-2.87811	0.0750732	
3729	-2.86285	0.0758362	
3730	-2.84546	0.0765991	
3731	-2.83051	0.0794983	
3732	-2.81494	0.088501	
3733	-2.79907	0.0921631	
3734	-2.78534	0.0938416	
3735	-2.76764	0.0956726	
3736	-2.75208	0.091095	
3737	-2.73804	0.068512	
3738	-2.72247	0.0430298	
3739	-2.7063	0.0337219	
3740	-2.69135	0.0343323	
3741	-2.6767	0.0372314	
3742	-2.66266	0.0439453	
3743	-2.64771	0.0454712	
3744	-2.63306	0.0393677	
3745	-2.61841	0.035553	
3746	-2.60498	0.0366211	
3747	-2.59094	0.0325012	
3748	-2.57538	0.0346375	
3749	-2.56073	0.0466919	
3750	-2.54669	0.0558472	
3751	-2.53204	0.065918	
3752	-2.51953	0.0814819	
3753	-2.50549	0.0904846	
3754	-2.49084	0.0917053	
3755	-2.4762	0.08255	
3756	-2.46155	0.0714111	
3757	-2.44843	0.0614929	
3758	-2.43439	0.0486755	
3759	-2.42218	0.0395203	
3760	-2.40814	0.0476074	
3761	-2.39258	0.0595093	
3762	-2.37976	0.0624084	
3763	-2.36633	0.0570679	
3764	-2.35168	0.0450134	
3765	-2.34039	0.0256348	
3766	-2.32483	0.00961304	
3767	-2.31354	0.00793457	
3768	-2.30133	0.0254822	
3769	-2.2876	0.0613403	
3770	-2.27539	0.110168	
3771	-2.26105	0.146637	
3772	-2.24945	0.163116	
3773	-2.23816	0.162506	
3774	-2.22626	0.154877	
3775	-2.21405	0.155029	
3776	-2.20215	0.160217	
3777	-2.18933	0.170288	
3778	-2.17926	0.183716	
3779	-2.16858	0.191345	
3780	-2.15942	0.194702	
3781	-2.14966	0.20874	
3782	-2.13623	0.22583	
3783	-2.12555	0.253906	
3784	-2.11548	0.297241	
3785	-2.10602	0.337677	
3786	-2.09564	0.3508	
3787	-2.08557	0.342102	
3788	-2.07764	0.340881	
3789	-2.07092	0.348511	
3790	-2.06085	0.350342	
3791	-2.05078	0.337372	
3792	-2.04102	0.3125	
3793	-2.03522	0.283966	
3794	-2.02728	0.251923	
3795	-2.02179	0.208588	
3796	-2.01324	0.151825	
3797	-2.00745	0.0805664	
3798	-1.9986	0.0195313	
3799	-1.99188	-0.0219727	
3800	-1.98395	-0.0430298	
3801	-1.97937	-0.0524902	
3802	-1.97235	-0.0637817	
3803	-1.96442	-0.0724792	
3804	-1.9577	-0.0762939	
3805	-1.95251	-0.0857544	
3806	-1.9455	-0.101929	
3807	-1.93848	-0.122528	
3808	-1.93237	-0.130615	
3809	-1.92505	-0.120239	
3810	-1.91895	-0.102081	
3811	-1.91254	-0.0822449	
3812	-1.90582	-0.06073	
3813	-1.89941	-0.0540161	
3814	-1.89301	-0.0547791	
3815	-1.88568	-0.0622559	
3816	-1.87897	-0.0715637	
3817	-1.87225	-0.0767517	
3818	-1.86554	-0.0663757	
3819	-1.85974	-0.0474548	
3820	-1.85516	-0.0260925	
3821	-1.84692	0.00305176	
3822	-1.84021	0.0325012	
3823	-1.83533	0.0512695	
3824	-1.82739	0.0648499	
3825	-1.82068	0.0804138	
3826	-1.81519	0.093689	
3827	-1.81	0.110626	
3828	-1.80511	0.116272	
3829	-1.79779	0.106354	
3830	-1.79169	0.0923157	
3831	-1.78619	0.0817871	
3832	-1.7807	0.0723267	
3833	-1.77307	0.0637817	
3834	-1.76727	0.0540161	
3835	-1.76178	0.0460815	
3836	-1.75629	0.0395203	
3837	-1.74927	0.0338745	
3838	-1.74316	0.0282288	
3839	-1.73798	0.0141907	
3840	-1.73096	-0.00518799	
3841	-1.72363	-0.0137329	
3842	-1.71692	-0.0233459	
3843	-1.71265	-0.0389099	
3844	-1.70502	-0.0469971	
3845	-1.70044	-0.0466919	
3846	-1.69403	-0.0527954	
3847	-1.68823	-0.072937	
3848	-1.6806	-0.0927734	
3849	-1.67419	-0.102539	
3850	-1.6684	-0.108185	
3851	-1.66351	-0.104523	
3852	-1.65405	-0.080719	
3853	-1.64917	-0.0628662	
3854	-1.64032	-0.0544739	
3855	-1.63391	-0.0241089	
3856	-1.62659	0.022583	
3857	-1.62079	0.0639343	
3858	-1.6156	0.0965881	
3859	-1.60767	0.114746	
3860	-1.60065	0.122223	
3861	-1.59454	0.123749	
3862	-1.58752	0.114746	
3863	-1.58112	0.103149	
3864	-1.57318	0.0991821	
3865	-1.56647	0.0863647	
3866	-1.55701	0.0512695	
3867	-1.54846	0.0062561	
3868	-1.54205	-0.0190735	
3869	-1.53198	-0.0186157	
3870	-1.52618	-0.000762939	
3871	-1.51794	0.0202942	
3872	-1.50909	0.0447083	
3873	-1.50238	0.0619507	
3874	-1.49719	0.0720215	
3875	-1.48865	0.0823975	
3876	-1.4801	0.0854492	
3877	-1.47339	0.0843811	
3878	-1.46332	0.0811768	
3879	-1.45355	0.0839233	
3880	-1.44806	0.0941467	
3881	-1.4386	0.112457	
3882	-1.4328	0.140991	
3883	-1.42487	0.178986	
3884	-1.41663	0.214386	
3885	-1.4093	0.240784	
3886	-1.40137	0.260773	
3887	-1.39557	0.273895	
3888	-1.38672	0.273438	
3889	-1.38092	0.263214	
3890	-1.37085	0.243225	
3891	-1.36353	0.217896	
3892	-1.35498	0.184326	
3893	-1.34613	0.145416	
3894	-1.33972	0.0994873	
3895	-1.3324	0.0616455	
3896	-1.32385	0.0453186	
3897	-1.31653	0.0410461	
3898	-1.30646	0.0392151	
3899	-1.30066	0.0437927	
3900	-1.29242	0.058136	
3901	-1.28265	0.0767517	
3902	-1.2735	0.0860596	
3903	-1.26801	0.0770569	
3904	-1.26099	0.0558472	
3905	-1.25244	0.0442505	
3906	-1.2439	0.0398254	
3907	-1.23413	0.0311279	
3908	-1.22772	0.0248718	
3909	-1.21918	0.0294495	
3910	-1.20911	0.037384	
3911	-1.19995	0.0460815	
3912	-1.19019	0.0524902	
3913	-1.18347	0.0617981	
3914	-1.17432	0.0724792	
3915	-1.16577	0.0886536	
3916	-1.15662	0.107422	
3917	-1.15082	0.130768	
3918	-1.14136	0.147705	
3919	-1.13098	0.15976	
3920	-1.12396	0.17334	
3921	-1.11389	0.193024	
3922	-1.10657	0.213318	
3923	-1.0968	0.224915	
3924	-1.08734	0.232239	
3925	-1.08124	0.237885	
3926	-1.073	0.246124	
3927	-1.06262	0.259857	
3928	-1.05316	0.266266	
3929	-1.04279	0.263977	
3930	-1.03394	0.258942	
3931	-1.02844	0.249939	
3932	-1.01868	0.228271	
3933	-1.01196	0.19043	
3934	-1.00433	0.150146	
3935	-0.996399	0.10437	
3936	-0.985107	0.0666809	
3937	-0.979004	0.0515747	
3938	-0.973206	0.0627136	
3939	-0.964355	0.098877	
3940	-0.956116	0.144501	
3941	-0.950012	0.188293	
3942	-0.941772	0.223541	
3943	-0.935059	0.24704	
3944	-0.925598	0.266266	
3945	-0.919495	0.26947	
3946	-0.91217	0.27298	
3947	-0.907593	0.29068	
3948	-0.901184	0.330048	
3949	-0.895386	0.370636	
3950	-0.887756	0.39093	
3951	-0.881348	0.384521	
3952	-0.875549	0.370178	
3953	-0.870667	0.368195	
3954	-0.865784	0.373383	
3955	-0.856934	0.375519	
3956	-0.85022	0.382996	
3957	-0.845642	0.396881	
3958	-0.84198	0.417633	
3959	-0.837708	0.437164	
3960	-0.831909	0.457153	
3961	-0.82489	0.476074	
3962	-0.822144	0.4953	
3963	-0.816345	0.505829	
3964	-0.811462	0.499878	
3965	-0.806274	0.48233	
3966	-0.802307	0.457458	
3967	-0.797424	0.441589	
3968	-0.793152	0.435944	
3969	-0.787659	0.435028	
3970	-0.78186	0.431519	
3971	-0.778809	0.431671	
3972	-0.775146	0.438385	
3973	-0.769348	0.435944	
3974	-0.767517	0.421448	
3975	-0.762634	0.407104	
3976	-0.757751	0.4039	
3977	-0.752563	0.402985	
3978	-0.747986	0.404358	
3979	-0.744324	0.410461	
3980	-0.740662	0.413818	
3981	-0.738831	0.407104	
3982	-0.735474	0.392761	
3983	-0.730286	0.383606	
3984	-0.728149	0.378723	
3985	-0.724792	0.375366	
3986	-0.719604	0.371399	
3987	-0.71991	0.365906	
3988	-0.715942	0.354614	
3989	-0.713501	0.338287	
3990	-0.705872	0.319061	
3991	-0.704956	0.299225	
3992	-0.701599	0.276947	
3993	-0.698853	0.258179	
3994	-0.69397	0.252686	
3995	-0.690002	0.263062	
3996	-0.689392	0.270996	
3997	-0.68512	0.272369	
3998	-0.679932	0.278931	
3999	-0.675354	0.27359	
4000	-0.670776	0.250549	
4001	-0.665588	0.215607	
4002	-0.663757	0.187531	
4003	-0.657043	0.174866	
4004	-0.65155	0.177155	
4005	-0.649414	0.181885	
4006	-0.643005	0.170593	
4007	-0.637512	0.147247	
4008	-0.632019	0.123596	
4009	-0.627136	0.105286	
4010	-0.621338	0.0991821	
4011	-0.616455	0.103149	
4012	-0.6073	0.111694	
4013	-0.600586	0.120392	
4014	-0.592957	0.133057	
4015	-0.587463	0.145416	
4016	-0.578003	0.145721	
4017	-0.571594	0.135651	
4018	-0.56366	0.12558	
4019	-0.553589	0.12558	
4020	-0.543213	0.129395	
4021	-0.533752	0.135498	
4022	-0.523987	0.144806	
4023	-0.514221	0.156708	
4024	-0.504456	0.170898	
4025	-0.494995	0.176697	
4026	-0.480652	0.177002	
4027	-0.470581	0.181274	
4028	-0.460205	0.185242	
4029	-0.449829	0.178223	
4030	-0.436707	0.157776	
4031	-0.423279	0.12558	
4032	-0.410156	0.0883484	
4033	-0.397949	0.039978	
4034	-0.383606	-0.0141907	
4035	-0.37262	-0.0639343	
4036	-0.358887	-0.104523	
4037	-0.346375	-0.13504	
4038	-0.332947	-0.149231	
4039	-0.317078	-0.142975	
4040	-0.302734	-0.123596	
4041	-0.288086	-0.101013	
4042	-0.270386	-0.0791931	
4043	-0.255737	-0.0558472	
4044	-0.240479	-0.0212097	
4045	-0.221863	0.00823975	
4046	-0.206909	0.0283813	
4047	-0.19043	0.0537109	
4048	-0.175476	0.078125	
4049	-0.157166	0.0871277	
4050	-0.141296	0.0878906	
4051	-0.124207	0.0848389	
4052	-0.108643	0.0810242	
4053	-0.0906372	0.0756836	
4054	-0.0744629	0.068512	
4055	-0.0582886	0.0593567	
4056	-0.0402832	0.0442505	
4057	-0.0216675	0.0263977	
4058	-0.00610352	0.00595093	
4059	0.012207	-0.00961304	
4060	0.0286865	-0.0193787	
4061	0.0466919	-0.0265503	
4062	0.062561	-0.0349426	
4063	0.0823975	-0.0502014	
4064	0.0979614	-0.0694275	
4065	0.116272	-0.0842285	
4066	0.132141	-0.0901794	
4067	0.149536	-0.0798035	
4068	0.169983	-0.0541687	
4069	0.188599	-0.0236511	
4070	0.204163	0.00839233	
4071	0.223389	0.0260925	
4072	0.240784	0.027771	
4073	0.262146	0.010376	
4074	0.27832	-0.0262451	
4075	0.2948	-0.0761414	
4076	0.312805	-0.137177	
4077	0.330811	-0.204773	
4078	0.350952	-0.274658	
4079	0.368347	-0.338593	
4080	0.386047	-0.384369	
4081	0.403442	-0.40741	
4082	0.420227	-0.418549	
4083	0.435486	-0.420227	
4084	0.454102	-0.401459	
4085	0.472107	-0.367889	
4086	0.487061	-0.336304	
4087	0.502625	-0.294037	
4088	0.519104	-0.247955	
4089	0.536499	-0.19928	
4090	0.552063	-0.140533	
4091	0.566711	-0.0671387	
4092	0.579834	0.00442505	
4093	0.592651	0.0578308	
4094	0.609741	0.0990295	
4095	0.624695	0.143127	
4096	0.636597	0.180359	
4097	0.65094	0.205536	
4098	0.664673	0.209808	
4099	0.678101	0.186462	
4100	0.692444	0.145721	
4101	0.704041	0.0973511	
4102	0.717163	0.040741	
4103	0.728455	-0.0231934	
4104	0.741882	-0.0970459	
4105	0.752869	-0.186157	
4106	0.765686	-0.28656	
4107	0.776672	-0.372467	
4108	0.787048	-0.423126	
4109	0.796204	-0.435944	
4110	0.806885	-0.416565	
4111	0.816956	-0.366516	
4112	0.826111	-0.288849	
4113	0.836487	-0.196991	
4114	0.845642	-0.114746	
4115	0.855713	-0.0550842	
4116	0.863953	-0.0320435	
4117	0.874329	-0.0375366	
4118	0.881348	-0.043335	
4119	0.889587	-0.0402832	
4120	0.898743	-0.0338745	
4121	0.905151	-0.0300598	
4122	0.914612	-0.0331116	
4123	0.921021	-0.0509644	
4124	0.926514	-0.0726318	
4125	0.934143	-0.0912476	
4126	0.942993	-0.107269	
4127	0.948181	-0.13504	
4128	0.953674	-0.180054	
4129	0.962524	-0.241089	
4130	0.967712	-0.308228	
4131	0.973816	-0.367737	
4132	0.979614	-0.410309	
4133	0.983887	-0.436096	
4134	0.98938	-0.447235	
4135	0.996399	-0.442963	
4136	1.00189	-0.420837	
4137	1.00769	-0.391083	
4138	1.01379	-0.356445	
4139	1.01929	-0.311737	
4140	1.02661	-0.264893	
4141	1.02844	-0.224609	
4142	1.03363	-0.191803	
4143	1.0376	-0.171814	
4144	1.04492	-0.148773	
4145	1.04858	-0.120087	
4146	1.05255	-0.0982666	
4147	1.05804	-0.0976563	
4148	1.06293	-0.116272	
4149	1.06659	-0.130463	
4150	1.07056	-0.128326	
4151	1.07544	-0.120239	
4152	1.08093	-0.116425	
4153	1.08246	-0.120239	
4154	1.08398	-0.12207	
4155	1.09039	-0.124054	
4156	1.09283	-0.127869	
4157	1.09558	-0.137939	
4158	1.09985	-0.147247	
4159	1.10107	-0.162048	
4160	1.10046	-0.183563	
4161	1.10504	-0.209503	
4162	1.10687	-0.234985	
4163	1.11084	-0.260315	
4164	1.11084	-0.300903	
4165	1.11084	-0.354919	
4166	1.1142	-0.405884	
4167	1.11633	-0.437927	
4168	1.11542	-0.443878	
4169	1.11572	-0.416718	
4170	1.11603	-0.362549	
4171	1.11877	-0.30304	
4172	1.12091	-0.235901	
4173	1.12061	-0.165405	
4174	1.12061	-0.103149	
4175	1.1203	-0.0509644	
4176	1.12091	-0.0198364	
4177	1.1203	-0.00350952	
4178	1.12061	0.0123596	
4179	1.12061	0.017395	
4180	1.12244	0.00518799	
4181	1.12213	-0.0378418	
4182	1.12091	-0.0942993	
4183	1.12061	-0.144958	
4184	1.1203	-0.181885	
4185	1.12061	-0.205688	
4186	1.12061	-0.23941	
4187	1.12091	-0.286407	
4188	1.12305	-0.330811	
4189	1.12183	-0.370789	
4190	1.12061	-0.409698	
4191	1.12091	-0.443726	
4192	1.1203	-0.457764	
4193	1.12122	-0.457458	
4194	1.12549	-0.450134	
4195	1.1261	-0.424194	
4196	1.12427	-0.369873	
4197	1.12518	-0.334473	
4198	1.12488	-0.318604	
4199	1.12518	-0.316925	
4200	1.1261	-0.320892	
4201	1.12335	-0.318298	
4202	1.12152	-0.305023	
4203	1.12061	-0.280304	
4204	1.12488	-0.235291	
4205	1.12183	-0.182648	
4206	1.12061	-0.14267	
4207	1.1203	-0.108643	
4208	1.11786	-0.0634766	
4209	1.11908	-0.00976563	
4210	1.11542	0.0314331	
4211	1.11633	0.0396729	
4212	1.11481	0.0222778	
4213	1.11115	-0.00579834	
4214	1.11053	-0.0314331	
4215	1.11023	-0.0598145	
4216	1.10596	-0.100708	
4217	1.10474	-0.157013	
4218	1.10077	-0.209656	
4219	1.10168	-0.253296	
4220	1.0968	-0.30014	
4221	1.09589	-0.344696	
4222	1.09558	-0.367432	
4223	1.09131	-0.361633	
4224	1.09039	-0.335693	
4225	1.08643	-0.310364	
4226	1.08246	-0.291138	
4227	1.08154	-0.27771	
4228	1.07819	-0.259552	
4229	1.07666	-0.247498	
4230	1.0733	-0.244904	
4231	1.07178	-0.241241	
4232	1.06873	-0.229034	
4233	1.06628	-0.209351	
4234	1.06232	-0.189667	
4235	1.0614	-0.167084	
4236	1.05682	-0.131836	
4237	1.05255	-0.0764465	
4238	1.05194	-0.00411987	
4239	1.04889	0.0646973	
4240	1.04645	0.12146	
4241	1.04218	0.173492	
4242	1.03851	0.208588	
4243	1.03363	0.215759	
4244	1.0321	0.200348	
4245	1.02783	0.159912	
4246	1.0257	0.0912476	
4247	1.02234	0.0088501	
4248	1.01868	-0.0531006	
4249	1.01746	-0.0906372	
4250	1.0144	-0.115814	
4251	1.00952	-0.127563	
4252	1.00739	-0.130768	
4253	1.00311	-0.129242	
4254	1.0025	-0.12085	
4255	0.99823	-0.109253	
4256	0.994873	-0.106049	
4257	0.993042	-0.113678	
4258	0.988464	-0.120239	
4259	0.985107	-0.120392	
4260	0.982361	-0.116119	
4261	0.979004	-0.104218	
4262	0.977783	-0.0874329	
4263	0.973511	-0.0561523	
4264	0.9729	-0.0106812	
4265	0.964966	0.0344849	
4266	0.96405	0.0646973	
4267	0.960388	0.0698853	
4268	0.955811	0.0663757	
4269	0.953979	0.0688171	
4270	0.950928	0.0717163	
4271	0.948486	0.0679016	
4272	0.943298	0.065155	
4273	0.939331	0.0567627	
4274	0.935059	0.0387573	
4275	0.930176	0.0135803	
4276	0.928955	-0.0205994	
4277	0.921936	-0.0596619	
4278	0.92041	-0.0965881	
4279	0.914917	-0.13443	
4280	0.909729	-0.172119	
4281	0.904846	-0.220032	
4282	0.899658	-0.265045	
4283	0.89447	-0.283051	
4284	0.886841	-0.281219	
4285	0.882568	-0.275421	
4286	0.877075	-0.263519	
4287	0.872498	-0.242615	
4288	0.863647	-0.233002	
4289	0.857239	-0.229034	
4290	0.85144	-0.201111	
4291	0.845947	-0.157013	
4292	0.841064	-0.111389	
4293	0.831604	-0.0747681	
4294	0.825806	-0.0427246	
4295	0.817566	-0.00793457	
4296	0.808411	0.012207	
4297	0.803528	0.015564	
4298	0.797119	0.00488281	
4299	0.789185	-0.000610352	
4300	0.782776	0.00106812	
4301	0.776978	0.010376	
4302	0.769043	0.0279236	
4303	0.762939	0.0344849	
4304	0.75531	0.0204468	
4305	0.748596	-0.00793457	
4306	0.740051	-0.0389099	
4307	0.733948	-0.0662231	
4308	0.723877	-0.0926208	
4309	0.718689	-0.12085	
4310	0.709839	-0.162048	
4311	0.700989	-0.203094	
4312	0.692139	-0.228119	
4313	0.684509	-0.236969	
4314	0.676575	-0.239868	
4315	0.671082	-0.242767	
4316	0.665283	-0.239258	
4317	0.655518	-0.220337	
4318	0.646667	-0.196838	
4319	0.640564	-0.175018	
4320	0.632324	-0.151825	
4321	0.626526	-0.131073	
4322	0.617981	-0.116272	
4323	0.612183	-0.102539	
4324	0.603333	-0.098877	
4325	0.597229	-0.100098	
4326	0.588684	-0.0970459	
4327	0.582581	-0.090332	
4328	0.57373	-0.0848389	
4329	0.565186	-0.0801086	
4330	0.555115	-0.0811768	
4331	0.548096	-0.0848389	
4332	0.541382	-0.078125	
4333	0.533142	-0.0579834	
4334	0.526428	-0.038147	
4335	0.515747	-0.0349426	
4336	0.509338	-0.0378418	
4337	0.502625	-0.03479	
4338	0.4953	-0.0482178	
4339	0.488892	-0.0906372	
4340	0.480347	-0.148926	
4341	0.473938	-0.216217	
4342	0.468445	-0.282288	
4343	0.459595	-0.327759	
4344	0.450134	-0.359192	
4345	0.446777	-0.377197	
4346	0.439758	-0.373077	
4347	0.430603	-0.345917	
4348	0.421448	-0.321655	
4349	0.416565	-0.310364	
4350	0.410461	-0.304413	
4351	0.401001	-0.298004	
4352	0.394897	-0.289307	
4353	0.387268	-0.281372	
4354	0.380859	-0.281067	
4355	0.375366	-0.280304	
4356	0.367126	-0.271759	
4357	0.361023	-0.257111	
4358	0.352173	-0.24826	
4359	0.34668	-0.262604	
4360	0.337219	-0.303192	
4361	0.331116	-0.342865	
4362	0.326233	-0.363007	
4363	0.317078	-0.362396	
4364	0.31189	-0.354004	
4365	0.307007	-0.351257	
4366	0.301514	-0.356598	
4367	0.293579	-0.366669	
4368	0.28717	-0.382996	
4369	0.282288	-0.395966	
4370	0.27771	-0.396423	
4371	0.270081	-0.384216	
4372	0.264587	-0.38269	
4373	0.259705	-0.400238	
4374	0.253601	-0.419464	
4375	0.249634	-0.43396	
4376	0.244751	-0.443115	
4377	0.238647	-0.463257	
4378	0.232849	-0.499268	
4379	0.229797	-0.548401	
4380	0.223999	-0.616455	
4381	0.220337	-0.661163	
4382	0.214844	-0.648041	
4383	0.20874	-0.597687	
4384	0.205383	-0.529785	
4385	0.201111	-0.462494	
4386	0.196838	-0.396576	
4387	0.191345	-0.334778	
4388	0.186462	-0.280457	
4389	0.18158	-0.236816	
4390	0.177002	-0.199738	
4391	0.171509	-0.16098	
4392	0.1651	-0.118713	
4393	0.159912	-0.0787354	
4394	0.155334	-0.050354	
4395	0.150146	-0.0332642	
4396	0.142822	-0.0219727	
4397	0.137329	-0.0189209	
4398	0.132751	-0.0402832	
4399	0.126953	-0.0895691	
4400	0.12085	-0.132141	
4401	0.113525	-0.153809	
4402	0.107422	-0.163574	
4403	0.102844	-0.170135	
4404	0.0964355	-0.17395	
4405	0.0927734	-0.166931	
4406	0.0888062	-0.154724	
4407	0.0842285	-0.138702	
4408	0.0796509	-0.122375	
4409	0.0762939	-0.112305	
4410	0.0726318	-0.106201	
4411	0.0665283	-0.0979614	
4412	0.0628662	-0.0923157	
4413	0.0592041	-0.0866699	
4414	0.0549316	-0.0753784	
4415	0.0537109	-0.0675964	
4416	0.0497437	-0.0578308	
4417	0.0485229	-0.0471497	
4418	0.0448608	-0.0376892	
4419	0.0427246	-0.0382996	
4420	0.0390625	-0.0540161	
4421	0.0387573	-0.0810242	
4422	0.0378418	-0.090332	
4423	0.0341797	-0.0791931	
4424	0.0335693	-0.0585938	
4425	0.0296021	-0.0402832	
4426	0.0280762	-0.0402832	
4427	0.0247192	-0.0648499	
4428	0.0238037	-0.0915527	
4429	0.0244141	-0.0965881	
4430	0.0210571	-0.0898743	
4431	0.0198364	-0.0794983	
4432	0.0183105	-0.0740051	
4433	0.0158691	-0.0762939	
4434	0.0146484	-0.0819397	
4435	0.0140381	-0.090332	
4436	0.0149536	-0.0900269	
4437	0.0134277	-0.0811768	
4438	0.010376	-0.0662231	
4439	0.00915527	-0.0463867	
4440	0.00915527	-0.0233459	
4441	0.0088501	-0.00427246	
4442	0.00823975	0.01297	
4443	0.00701904	0.0241089	
4444	0.00427246	0.0280762	
4445	0.00457764	0.0257874	
4446	0.00427246	0.020752	
4447	0.00396729	0.0204468	
4448	0.00488281	0.0267029	
4449	0.00457764	0.0367737	
4450	0.00732422	0.0401306	
4451	0.00732422	0.0411987	
4452	0.00579834	0.0422668	
4453	0.00915527	0.0497437	
4454	0.00976563	0.0613403	
4455	0.00946045	0.0701904	
4456	0.0106812	0.0813293	
4457	0.0109863	0.0914001	
4458	0.0143433	0.100861	
4459	0.017395	0.10788	
4460	0.0189209	0.114899	
4461	0.0201416	0.11322	
4462	0.0189209	0.104065	
4463	0.0231934	0.100403	
4464	0.0247192	0.101776	
4465	0.0286865	0.0997925	
4466	0.0308228	0.0958252	
4467	0.0335693	0.0952148	
4468	0.0350952	0.0953674	
4469	0.0366211	0.0906372	
4470	0.039978	0.072937	
4471	0.0436401	0.0434875	
4472	0.0445557	0.0157166	
4473	0.0479126	-0.0149536	
4474	0.0491333	-0.0462341	
4475	0.0518799	-0.0653076	
4476	0.0570679	-0.0779724	
4477	0.0579834	-0.101166	
4478	0.0628662	-0.134583	
4479	0.0634766	-0.174713	
4480	0.0646973	-0.209198	
4481	0.0692749	-0.237885	
4482	0.0735474	-0.262909	
4483	0.0775146	-0.273743	
4484	0.0790405	-0.2565	
4485	0.0817871	-0.224762	
4486	0.0857544	-0.200348	
4487	0.0878906	-0.187836	
4488	0.0921631	-0.186768	
4489	0.0964355	-0.190277	
4490	0.100708	-0.192108	
4491	0.10498	-0.200195	
4492	0.110779	-0.218353	
4493	0.113525	-0.234222	
4494	0.117493	-0.241547	
4495	0.122681	-0.261536	
4496	0.127258	-0.291595	
4497	0.13031	-0.31311	
4498	0.134888	-0.319824	
4499	0.137939	-0.317993	
4500	0.142212	-0.313263	
4501	0.146179	-0.305023	
4502	0.151672	-0.294342	
4503	0.157166	-0.287476	
4504	0.160522	-0.287476	
4505	0.16449	-0.294037	
4506	0.169373	-0.306854	
4507	0.171814	-0.330353	
4508	0.176086	-0.358582	
4509	0.179443	-0.392456	
4510	0.184326	-0.408478	
4511	0.187988	-0.414429	
4512	0.189819	-0.413971	
4513	0.192261	-0.39093	
4514	0.194397	-0.353241	
4515	0.195923	-0.313873	
4516	0.199585	-0.280914	
4517	0.202942	-0.247803	
4518	0.204773	-0.210724	
4519	0.205078	-0.173798	
4520	0.20813	-0.137329	
4521	0.209045	-0.102081	
4522	0.212097	-0.0831604	
4523	0.213623	-0.0752258	
4524	0.214844	-0.0724792	
4525	0.214539	-0.063324	
4526	0.214233	-0.0485229	
4527	0.217896	-0.045929	
4528	0.219116	-0.0561523	
4529	0.218811	-0.0727844	
4530	0.220032	-0.0886536	
4531	0.219727	-0.10025	
4532	0.219116	-0.121155	
4533	0.219421	-0.14389	
4534	0.21698	-0.167542	
4535	0.215454	-0.182037	
4536	0.214844	-0.187683	
4537	0.213318	-0.190582	
4538	0.209656	-0.200043	
4539	0.212097	-0.208282	
4540	0.209045	-0.208893	
4541	0.204773	-0.196228	
4542	0.205078	-0.17395	
4543	0.203247	-0.151672	
4544	0.199585	-0.135193	
4545	0.200195	-0.106049	
4546	0.198669	-0.065918	
4547	0.195313	-0.0328064	
4548	0.194092	-0.0114441	
4549	0.189209	0.00579834	
4550	0.185242	0.010376	
4551	0.184937	-0.00366211	
4552	0.18158	-0.0395203	
4553	0.178223	-0.0811768	
4554	0.177917	-0.119629	
4555	0.172424	-0.147858	
4556	0.171204	-0.159302	
4557	0.166626	-0.155334	
4558	0.16449	-0.13916	
4559	0.159302	-0.113373	
4560	0.155945	-0.0846863	
4561	0.152588	-0.0471497	
4562	0.150146	-0.00457764	
4563	0.146484	0.0350952	
4564	0.142517	0.0701904	
4565	0.140381	0.098877	
4566	0.136719	0.134735	
4567	0.132751	0.159454	
4568	0.130615	0.173492	
4569	0.126953	0.191498	
4570	0.126038	0.210724	
4571	0.121765	0.218353	
4572	0.118103	0.211792	
4573	0.117188	0.201416	
4574	0.113525	0.188751	
4575	0.111694	0.181274	
4576	0.108032	0.175934	
4577	0.103455	0.167847	
4578	0.100708	0.157928	
4579	0.0973511	0.145264	
4580	0.093689	0.128632	
4581	0.0909424	0.120392	
4582	0.0872803	0.123596	
4583	0.0839233	0.13092	
4584	0.0790405	0.126343	
4585	0.0793457	0.116577	
4586	0.0747681	0.110321	
4587	0.0698853	0.110931	
4588	0.0643921	0.117188	
4589	0.0634766	0.121002	
4590	0.0598145	0.11795	
4591	0.0585938	0.108185	
4592	0.0552368	0.092926	
4593	0.0524902	0.0888062	
4594	0.0479126	0.0939941	
4595	0.0442505	0.101471	
4596	0.0439453	0.109863	
4597	0.039978	0.112457	
4598	0.0375366	0.105286	
4599	0.032959	0.0946045	
4600	0.0296021	0.0921631	
4601	0.0292969	0.102844	
4602	0.0247192	0.110016	
4603	0.0201416	0.10849	
4604	0.0180054	0.0930786	
4605	0.0143433	0.0723267	
4606	0.0109863	0.0550842	
4607	0.00579834	0.0491333	
4608	0.00457764	0.0558472	
4609	0.000915527	0.0717163	
4610	0.000305176	0.0845337	
4611	-0.00274658	0.0959778	
4612	-0.00488281	0.11261	
4613	-0.0088501	0.123596	
4614	-0.0115967	0.130768	
4615	-0.0149536	0.138397	
4616	-0.0140381	0.146637	
4617	-0.015564	0.149231	
4618	-0.0192261	0.144348	
4619	-0.0195313	0.136871	
4620	-0.0213623	0.129089	
4621	-0.0250244	0.123291	
4622	-0.0247192	0.115051	
4623	-0.0259399	0.108643	
4624	-0.0305176	0.0991821	
4625	-0.0332642	0.0894165	
4626	-0.0341797	0.0747681	
4627	-0.0350952	0.0598145	
4628	-0.038147	0.0532532	
4629	-0.0390625	0.0656128	
4630	-0.0387573	0.0834656	
4631	-0.0427246	0.0990295	
4632	-0.0436401	0.114746	
4633	-0.0479126	0.128632	
4634	-0.0488281	0.132141	
4635	-0.0500488	0.123444	
4636	-0.0534058	0.115967	
4637	-0.0534058	0.109406	
4638	-0.057373	0.108185	
4639	-0.0592041	0.12146	
4640	-0.062561	0.142059	
4641	-0.0634766	0.159912	
4642	-0.0637817	0.168915	
4643	-0.0646973	0.168304	
4644	-0.0683594	0.163574	
4645	-0.0689697	0.149536	
4646	-0.0686646	0.13504	
4647	-0.0683594	0.128784	
4648	-0.0704956	0.135345	
4649	-0.0726318	0.147247	
4650	-0.0732422	0.158691	
4651	-0.0738525	0.160217	
4652	-0.072937	0.149384	
4653	-0.0741577	0.131378	
4654	-0.0735474	0.114899	
4655	-0.0750732	0.102692	
4656	-0.0747681	0.103302	
4657	-0.0775146	0.105743	
4658	-0.0778198	0.104523	
4659	-0.078125	0.102386	
4660	-0.0784302	0.110779	
4661	-0.0778198	0.119629	
4662	-0.078125	0.12207	
4663	-0.0790405	0.118408	
4664	-0.0830078	0.108185	
4665	-0.0823975	0.0930786	
4666	-0.0839233	0.0790405	
4667	-0.0878906	0.0672913	
4668	-0.0875854	0.0614929	
4669	-0.0878906	0.0669861	
4670	-0.0918579	0.0698853	
4671	-0.0952148	0.062561	
4672	-0.0946045	0.0500488	
4673	-0.0979614	0.0419617	
4674	-0.098877	0.0462341	
4675	-0.102539	0.055542	
4676	-0.104065	0.0593567	
4677	-0.107422	0.0593567	
4678	-0.110474	0.0639343	
4679	-0.111084	0.0680542	
4680	-0.114136	0.0694275	
4681	-0.116577	0.0772095	
4682	-0.117188	0.0895691	
4683	-0.121155	0.103912	
4684	-0.12207	0.12146	
4685	-0.123291	0.133972	
4686	-0.126953	0.135803	
4687	-0.127258	0.130463	
4688	-0.126953	0.124207	
4689	-0.129089	0.114899	
4690	-0.131531	0.111084	
4691	-0.131836	0.122375	
4692	-0.131226	0.141144	
4693	-0.132141	0.160828	
4694	-0.132446	0.179443	
4695	-0.132446	0.191498	
4696	-0.132751	0.201416	
4697	-0.132446	0.209351	
4698	-0.132446	0.214691	
4699	-0.132751	0.206604	
4700	-0.129089	0.183868	
4701	-0.127869	0.153351	
4702	-0.127258	0.114441	
4703	-0.123901	0.0550842	
4704	-0.122375	-0.00839233	
4705	-0.118408	-0.0534058	
4706	-0.115967	-0.0784302	
4707	-0.112915	-0.0892639	
4708	-0.109253	-0.0953674	
4709	-0.106812	-0.0999451	
4710	-0.101929	-0.103455	
4711	-0.0967407	-0.10437	
4712	-0.0921631	-0.0975037	
4713	-0.0866699	-0.0975037	
4714	-0.0820923	-0.0939941	
4715	-0.0747681	-0.0811768	
4716	-0.0683594	-0.0619507	
4717	-0.0601196	-0.0434875	
4718	-0.0537109	-0.0286865	
4719	-0.0479126	-0.022583	
4720	-0.0393677	-0.0218201	
4721	-0.0296021	-0.0218201	
4722	-0.020752	-0.018158	
4723	-0.0149536	-0.00762939	
4724	-0.00579834	0.00320435	
4725	0.00396729	0.00854492	
4726	0.0134277	0.00274658	
4727	0.0241089	-0.0088501	
4728	0.0335693	-0.015564	
4729	0.043335	-0.0117493	
4730	0.0527954	-0.00396729	
4731	0.062561	0.0050354	
4732	0.072937	0.00549316	
4733	0.0820923	0.00289917	
4734	0.0952148	0.00350952	
4735	0.106506	0.00366211	
4736	0.116577	0.0050354	
4737	0.126038	0.00915527	
4738	0.137329	0.020752	
4739	0.150757	0.0328064	
4740	0.160522	0.0410461	
4741	0.170288	0.0427246	
4742	0.180969	0.0379944	
4743	0.194092	0.0286865	
4744	0.203857	0.0253296	
4745	0.21698	0.0299072	
4746	0.227661	0.0387573	
4747	0.24231	0.0474548	
4748	0.253296	0.052948	
4749	0.264282	0.0538635	
4750	0.277405	0.0518799	
4751	0.287476	0.0521851	
4752	0.300903	0.0575256	
4753	0.315552	0.0675964	
4754	0.330505	0.0848389	
4755	0.342102	0.104218	
4756	0.354614	0.11673	
4757	0.369568	0.122681	
4758	0.381775	0.129547	
4759	0.396423	0.133972	
4760	0.409851	0.132599	
4761	0.423889	0.132294	
4762	0.434265	0.134277	
4763	0.447693	0.13443	
4764	0.462646	0.136414	
4765	0.475464	0.139771	
4766	0.489502	0.144501	
4767	0.50293	0.150604	
4768	0.516663	0.164337	
4769	0.531311	0.178833	
4770	0.545959	0.191345	
4771	0.557861	0.201569	
4772	0.572815	0.203247	
4773	0.586548	0.19928	
4774	0.602417	0.196838	
4775	0.61676	0.205994	
4776	0.629883	0.216217	
4777	0.645142	0.224152	
4778	0.65979	0.218964	
4779	0.673218	0.210571	
4780	0.687866	0.211792	
4781	0.70343	0.223083	
4782	0.715027	0.234985	
4783	0.72998	0.254364	
4784	0.74646	0.277557	
4785	0.762329	0.301666	
4786	0.776062	0.333252	
4787	0.787964	0.36972	
4788	0.802307	0.409851	
4789	0.81543	0.44632	
4790	0.829468	0.471191	
