Local: ,2025-05-22 00:00:00+02:00,tz_sec ,7200
Linux Epoch (ms):,1747864800000.0
Timestamp,Seq No.,ECG data
1747907046327.063,0,47436
1747907046328.062,0,45293
1747907046329.063,0,43321
1747907046330.062,0,41549
1747907046331.063,0,40011
1747907046331.937,0,38739
1747907046332.938,0,37687
1747907046333.937,0,36873
1747907046334.938,0,36260
1747907046335.938,0,35817
1747907046336.937,0,35515
1747907046337.938,1,35326
1747907046338.937,1,35214
1747907046339.938,1,35169
1747907046340.937,1,35167
1747907046341.938,1,35175
1747907046342.937,1,35197
1747907046343.9382,1,35217
1747907046344.937,1,35234
1747907046345.938,1,35247
1747907046346.937,1,35247
1747907046347.812,1,35232
1747907046348.813,2,35219
1747907046349.812,2,35202
1747907046350.813,2,35193
1747907046351.8118,2,35175
1747907046352.813,2,35163
1747907046353.812,2,35136
1747907046354.813,2,35115
1747907046355.812,2,35103
1747907046356.813,2,35097
1747907046357.812,2,35086
1747907046358.813,2,35062
1747907046359.812,3,35043
1747907046360.813,3,35011
1747907046361.812,3,34977
1747907046362.813,3,34939
1747907046363.719,3,34899
1747907046364.719,3,34855
1747907046365.719,3,34820
1747907046366.719,3,34794
1747907046367.719,3,34774
1747907046368.719,3,34763
1747907046369.719,3,34752
1747907046370.719,4,34747
1747907046371.719,4,34749
1747907046372.719,4,34754
1747907046373.719,4,34744
1747907046374.719,4,34731
1747907046375.719,4,34716
1747907046376.719,4,34697
1747907046377.719,4,34675
1747907046378.719,4,34651
1747907046379.562,4,34616
1747907046380.563,4,34581
1747907046381.562,5,34551
1747907046382.5632,5,34523
1747907046383.562,5,34509
1747907046384.563,5,34495
1747907046385.562,5,34481
1747907046386.563,5,34480
1747907046387.563,5,34492
1747907046388.562,5,34499
1747907046389.563,5,34501
1747907046390.562,5,34497
1747907046391.563,5,34479
1747907046392.562,6,34470
1747907046393.563,6,34458
1747907046394.562,6,34457
1747907046395.438,6,34439
1747907046396.437,6,34408
1747907046397.438,6,34382
1747907046398.438,6,34361
1747907046399.437,6,34341
1747907046400.438,6,34326
1747907046401.437,6,34313
1747907046402.438,6,34302
1747907046403.437,7,34296
1747907046404.438,7,34296
1747907046405.437,7,34296
1747907046406.4382,7,34293
1747907046407.437,7,34287
1747907046408.438,7,34278
1747907046409.437,7,34268
1747907046410.438,7,34252
1747907046411.313,7,34227
1747907046412.312,7,34213
1747907046413.313,7,34208
1747907046414.3118,8,34208
1747907046415.313,8,34202
1747907046416.312,8,34199
1747907046417.313,8,34188
1747907046418.312,8,34169
1747907046419.313,8,34165
1747907046420.312,8,34170
1747907046421.313,8,34168
1747907046422.312,8,34151
1747907046423.313,8,34137
1747907046424.312,8,34123
1747907046425.313,9,34113
1747907046426.312,9,34107
1747907046427.25,9,34086
1747907046428.25,9,34063
1747907046429.25,9,34047
1747907046430.25,9,34035
1747907046431.25,9,34035
1747907046432.25,9,34043
1747907046433.25,9,34050
1747907046434.25,9,34102
1747907046435.25,9,34250
1747907046436.25,10,34530
1747907046437.25,10,34951
1747907046438.25,10,35498
1747907046439.25,10,36146
1747907046440.25,10,36883
1747907046441.25,10,37672
1747907046442.25,10,38532
1747907046443.094,10,39347
1747907046444.094,10,40257
1747907046445.094,10,41111
1747907046446.094,10,42004
1747907046447.094,11,42914
1747907046448.094,11,43813
1747907046449.094,11,44692
1747907046450.094,11,45565
1747907046451.094,11,46446
1747907046452.094,11,47319
1747907046453.094,11,48164
1747907046454.094,11,48998
1747907046455.094,11,49793
1747907046456.094,11,50570
1747907046457.094,11,51324
1747907046458.094,12,52072
1747907046458.9692,12,52787
1747907046459.969,12,53485
1747907046460.969,12,54162
1747907046461.969,12,54830
1747907046462.969,12,55496
1747907046463.969,12,56170
1747907046464.969,12,56824
1747907046465.969,12,57492
1747907046466.969,12,58171
1747907046467.969,12,58792
1747907046468.969,13,59285
1747907046469.969,13,59597
1747907046470.969,13,59772
1747907046471.969,13,59856
1747907046472.969,13,59924
1747907046473.969,13,59945
1747907046474.844,13,59968
1747907046475.844,13,59974
1747907046476.844,13,59982
1747907046477.844,13,59988
1747907046478.844,13,59990
1747907046479.844,14,59984
1747907046480.844,14,59999
1747907046481.844,14,59994
1747907046482.844,14,59998
1747907046483.844,14,59990
1747907046484.844,14,59990
1747907046485.844,14,59992
1747907046486.844,14,59990
1747907046487.844,14,59991
1747907046488.844,14,59981
1747907046489.844,14,59981
1747907046490.719,15,59981
1747907046491.719,15,59991
1747907046492.719,15,59978
1747907046493.719,15,59985
1747907046494.719,15,59977
1747907046495.719,15,59979
1747907046496.719,15,59975
1747907046497.719,15,59985
1747907046498.719,15,59974
1747907046499.719,15,59984
1747907046500.719,15,59982
1747907046501.719,16,59703
1747907046502.719,16,57051
1747907046503.719,16,53310
1747907046504.719,16,49729
1747907046505.719,16,46374
1747907046506.625,16,43402
1747907046507.625,16,40833
1747907046508.625,16,38722
1747907046509.625,16,36995
1747907046510.625,16,35680
1747907046511.625,16,34662
1747907046512.625,17,33967
1747907046513.625,17,33489
1747907046514.625,17,33210
1747907046515.625,17,33067
1747907046516.625,17,33019
1747907046517.625,17,33033
1747907046518.625,17,33091
1747907046519.625,17,33178
1747907046520.625,17,33278
1747907046521.625,17,33378
1747907046522.5,17,33460
1747907046523.5,18,33522
1747907046524.5,18,33577
1747907046525.5,18,33621
1747907046526.5,18,33673
1747907046527.5,18,33701
1747907046528.5,18,33720
1747907046529.5,18,33729
1747907046530.5,18,33731
1747907046531.5,18,33734
1747907046532.5,18,33726
1747907046533.5,18,33713
1747907046534.5,19,33702
1747907046535.5,19,33675
1747907046536.5,19,33649
1747907046537.5,19,33626
1747907046538.375,19,33604
1747907046539.375,19,33583
1747907046540.375,19,33567
1747907046541.375,19,33560
1747907046542.375,19,33563
1747907046543.375,19,33560
1747907046544.375,19,33565
1747907046545.375,20,33571
1747907046546.375,20,33578
1747907046547.375,20,33581
1747907046548.375,20,33573
1747907046549.375,20,33569
1747907046550.375,20,33565
1747907046551.375,20,33553
1747907046552.375,20,33535
1747907046553.375,20,33516
1747907046554.219,20,33493
1747907046555.219,20,33455
1747907046556.219,21,33439
1747907046557.219,21,33433
1747907046558.219,21,33437
1747907046559.219,21,33445
1747907046560.219,21,33453
1747907046561.219,21,33458
1747907046562.219,21,33469
1747907046563.219,21,33485
1747907046564.219,21,33501
1747907046565.219,21,33504
1747907046566.219,21,33504
1747907046567.219,22,33489
1747907046568.219,22,33469
1747907046569.219,22,33454
1747907046570.094,22,33423
1747907046571.094,22,33405
1747907046572.094,22,33389
1747907046573.094,22,33375
1747907046574.094,22,33375
1747907046575.094,22,33366
1747907046576.094,22,33375
1747907046577.094,22,33379
1747907046578.094,23,33396
1747907046579.094,23,33412
1747907046580.094,23,33433
1747907046581.094,23,33436
1747907046582.094,23,33433
1747907046583.094,23,33433
1747907046584.094,23,33435
1747907046585.094,23,33430
1747907046586.0,23,33412
1747907046587.0,23,33389
1747907046588.0,23,33374
1747907046589.0,24,33363
1747907046590.0,24,33359
1747907046591.0,24,33359
1747907046592.0,24,33358
1747907046593.0,24,33349
1747907046594.0,24,33356
1747907046595.0,24,33366
1747907046596.0,24,33381
1747907046597.0,24,33386
1747907046598.0,24,33381
1747907046599.0,24,33370
1747907046600.0,25,33355
1747907046601.0,25,33344
1747907046601.906,25,33338
1747907046602.906,25,33333
1747907046603.906,25,33334
1747907046604.906,25,33331
1747907046605.906,25,33320
1747907046606.906,25,33314
1747907046607.906,25,33312
1747907046608.906,25,33308
1747907046609.906,25,33319
1747907046610.906,26,33326
1747907046611.906,26,33325
1747907046612.906,26,33317
1747907046613.906,26,33336
1747907046614.906,26,33418
1747907046615.906,26,33578
1747907046616.906,26,33832
1747907046617.781,26,34153
1747907046618.781,26,34545
1747907046619.781,26,34994
1747907046620.781,26,35499
1747907046621.781,27,36050
1747907046622.781,27,36631
1747907046623.781,27,37225
1747907046624.781,27,37827
1747907046625.781,27,38439
1747907046626.781,27,39050
1747907046627.781,27,39655
1747907046628.781,27,40240
1747907046629.781,27,40811
1747907046630.781,27,41361
1747907046631.781,27,41902
1747907046632.781,28,42424
1747907046633.625,28,42917
1747907046634.625,28,43416
1747907046635.625,28,43906
1747907046636.625,28,44388
1747907046637.625,28,44860
1747907046638.625,28,45338
1747907046639.625,28,45825
1747907046640.625,28,46313
1747907046641.625,28,46807
1747907046642.625,28,47305
1747907046643.625,29,47805
1747907046644.625,29,48340
1747907046645.625,29,48826
1747907046646.625,29,49328
1747907046647.625,29,49833
1747907046648.625,29,50332
1747907046649.5,29,50793
1747907046650.5,29,51257
1747907046651.5,29,51698
1747907046652.5,29,52153
1747907046653.5,29,52618
1747907046654.5,30,53084
1747907046655.5,30,53547
1747907046656.5,30,54004
1747907046657.5,30,54470
1747907046658.5,30,54946
1747907046659.5,30,55424
1747907046660.5,30,55888
1747907046661.5,30,56338
1747907046662.5,30,56761
1747907046663.5,30,57153
1747907046664.5,30,57531
1747907046665.406,31,57865
1747907046666.406,31,58168
1747907046667.406,31,58440
1747907046668.406,31,58679
1747907046669.406,31,58905
1747907046670.406,31,59104
1747907046671.406,31,59289
1747907046672.406,31,59437
1747907046673.406,31,59565
1747907046674.406,31,59661
1747907046675.406,31,59728
1747907046676.406,32,59782
1747907046677.406,32,59837
1747907046678.406,32,59867
1747907046679.406,32,59892
1747907046680.406,32,59906
1747907046681.281,32,59931
1747907046682.281,32,59935
1747907046683.281,32,59956
1747907046684.281,32,59966
1747907046685.281,32,59977
1747907046686.281,32,59988
1747907046687.281,33,59994
1747907046688.281,33,59991
1747907046689.281,33,59982
1747907046690.281,33,59998
1747907046691.281,33,59975
1747907046692.281,33,59997
1747907046693.281,33,59976
1747907046694.281,33,59993
1747907046695.281,33,59983
1747907046696.281,33,59973
1747907046697.219,33,59985
1747907046698.219,34,59987
1747907046699.219,34,59982
1747907046700.219,34,59978
1747907046701.219,34,59995
1747907046702.219,34,59990
1747907046703.219,34,59981
1747907046704.219,34,59995
1747907046705.219,34,59988
1747907046706.219,34,59982
1747907046707.219,34,59993
1747907046708.219,34,59982
1747907046709.219,35,59990
1747907046710.219,35,59990
1747907046711.219,35,59978
1747907046712.219,35,59993
1747907046713.031,35,59974
1747907046714.031,35,59981
1747907046715.031,35,59984
1747907046716.031,35,59989
1747907046717.031,35,59977
1747907046718.031,35,59993
1747907046719.031,35,59988
1747907046720.031,36,59980
1747907046721.031,36,59972
1747907046722.031,36,59986
1747907046723.031,36,59985
1747907046724.031,36,59977
1747907046725.031,36,59980
1747907046726.031,36,59978
1747907046727.031,36,59985
1747907046728.031,36,59988
1747907046728.906,36,59983
1747907046729.906,36,59978
1747907046730.906,37,59993
1747907046731.906,37,59987
1747907046732.906,37,59977
1747907046733.906,37,59976
1747907046734.906,37,59978
1747907046735.906,37,59989
1747907046736.906,37,59968
1747907046737.906,37,59971
1747907046738.906,37,59979
1747907046739.906,37,59992
1747907046740.906,37,59776
1747907046741.906,38,57274
1747907046742.906,38,53518
1747907046743.906,38,49759
1747907046744.813,38,46300
1747907046745.812,38,43233
1747907046746.813,38,40565
1747907046747.812,38,38382
1747907046748.813,38,36625
1747907046749.8118,38,35254
1747907046750.813,38,34216
1747907046751.812,38,33475
1747907046752.813,39,32992
1747907046753.812,39,32713
1747907046754.813,39,32573
1747907046755.812,39,32522
1747907046756.813,39,32542
1747907046757.812,39,32598
1747907046758.812,39,32691
1747907046759.813,39,32780
1747907046760.687,39,32860
1747907046761.688,39,32943
1747907046762.687,39,33015
1747907046763.688,40,33082
1747907046764.687,40,33133
1747907046765.688,40,33179
1747907046766.687,40,33205
1747907046767.688,40,33221
1747907046768.687,40,33241
1747907046769.687,40,33262
1747907046770.688,40,33267
1747907046771.687,40,33257
1747907046772.688,40,33249
1747907046773.6868,40,33231
1747907046774.688,41,33215
1747907046775.687,41,33197
1747907046776.563,41,33163
1747907046777.562,41,33133
1747907046778.563,41,33111
1747907046779.562,41,33098
1747907046780.562,41,33087
1747907046781.563,41,33080
1747907046782.562,41,33080
1747907046783.563,41,33084
1747907046784.562,41,33097
1747907046785.563,42,33101
1747907046786.562,42,33102
1747907046787.563,42,33099
1747907046788.562,42,33094
1747907046789.563,42,33081
1747907046790.562,42,33075
1747907046791.563,42,33075
1747907046792.406,42,33069
1747907046793.406,42,33057
1747907046794.406,42,33051
1747907046795.406,42,33042
1747907046796.406,43,33041
1747907046797.406,43,33037
1747907046798.406,43,33033
1747907046799.406,43,33033
1747907046800.406,43,33029
1747907046801.406,43,33028
1747907046802.406,43,33033
1747907046803.406,43,33034
1747907046804.406,43,33034
1747907046805.406,43,33033
1747907046806.406,43,33028
1747907046807.406,44,33019
1747907046808.281,44,33004
1747907046809.281,44,32991
1747907046810.281,44,32995
1747907046811.281,44,33000
1747907046812.281,44,33011
1747907046813.281,44,33019
1747907046814.281,44,33019
1747907046815.281,44,33017
1747907046816.281,44,33017
1747907046817.281,44,33019
1747907046818.281,45,33018
1747907046819.281,45,33009
1747907046820.281,45,32997
1747907046821.281,45,32982
1747907046822.2808,45,32981
1747907046823.281,45,32978
1747907046824.188,45,32963
1747907046825.187,45,32950
1747907046826.188,45,32946
1747907046827.187,45,32942
1747907046828.188,45,32949
1747907046829.187,46,32961
1747907046830.188,46,32972
1747907046831.187,46,32976
1747907046832.187,46,32991
1747907046833.188,46,33003
1747907046834.187,46,33003
1747907046835.188,46,33001
1747907046836.1868,46,32991
1747907046837.188,46,32985
1747907046838.187,46,32972
1747907046839.188,46,32958
1747907046840.094,47,32949
1747907046841.094,47,32927
1747907046842.094,47,32922
1747907046843.094,47,32930
1747907046844.094,47,32929
1747907046845.094,47,32931
1747907046846.094,47,32931
1747907046847.094,47,32930
1747907046848.094,47,32947
1747907046849.094,47,32963
1747907046850.094,47,32975
1747907046851.094,48,32986
1747907046852.094,48,32984
1747907046853.094,48,33005
1747907046854.094,48,33057
1747907046855.094,48,33167
1747907046855.969,48,33321
1747907046856.9692,48,33521
1747907046857.969,48,33752
1747907046858.969,48,34034
1747907046859.969,48,34349
1747907046860.969,48,34703
1747907046861.969,49,35082
1747907046862.969,49,35485
1747907046863.969,49,35965
1747907046864.969,49,36343
1747907046865.969,49,36771
1747907046866.969,49,37197
1747907046867.969,49,37614
1747907046868.969,49,38019
1747907046869.969,49,38405
1747907046870.969,49,38777
1747907046871.813,49,39126
1747907046872.812,50,39457
1747907046873.813,50,39779
1747907046874.8118,50,40098
1747907046875.813,50,40415
1747907046876.812,50,40719
1747907046877.813,50,41020
1747907046878.812,50,41321
1747907046879.813,50,41634
1747907046880.812,50,41967
1747907046881.813,50,42292
1747907046882.812,50,42621
1747907046883.812,51,42938
1747907046884.813,51,43239
1747907046885.812,51,43554
1747907046886.813,51,43863
1747907046887.719,51,44151
1747907046888.719,51,44426
1747907046889.719,51,44689
1747907046890.719,51,44955
1747907046891.719,51,45223
1747907046892.719,51,45491
1747907046893.719,51,45779
1747907046894.719,52,46040
1747907046895.719,52,46318
1747907046896.719,52,46602
1747907046897.719,52,46883
1747907046898.719,52,47155
1747907046899.719,52,47420
1747907046900.719,52,47685
1747907046901.719,52,47942
1747907046902.719,52,48192
1747907046903.594,52,48430
1747907046904.594,52,48662
1747907046905.594,53,48898
1747907046906.594,53,49132
1747907046907.594,53,49366
1747907046908.594,53,49602
1747907046909.594,53,49837
1747907046910.594,53,50072
1747907046911.594,53,50319
1747907046912.594,53,50575
1747907046913.594,53,50834
1747907046914.594,53,51087
1747907046915.594,53,51306
1747907046916.594,54,51527
1747907046917.594,54,51732
1747907046918.594,54,51936
1747907046919.4692,54,52138
1747907046920.469,54,52327
1747907046921.469,54,52525
1747907046922.469,54,52725
1747907046923.469,54,52945
1747907046924.469,54,53169
1747907046925.469,54,53405
1747907046926.469,54,53642
1747907046927.469,55,53882
1747907046928.469,55,54118
1747907046929.469,55,54350
1747907046930.469,55,54561
1747907046931.469,55,54766
1747907046932.469,55,54964
1747907046933.469,55,55152
1747907046934.469,55,55336
1747907046935.344,55,55507
1747907046936.344,55,55674
1747907046937.344,55,55845
1747907046938.344,56,56014
1747907046939.344,56,56190
1747907046940.344,56,56368
1747907046941.344,56,56550
1747907046942.344,56,56737
1747907046943.3442,56,56952
1747907046944.344,56,57174
1747907046945.344,56,57396
1747907046946.344,56,57600
1747907046947.344,56,57792
1747907046948.344,56,57978
1747907046949.344,57,58152
1747907046950.344,57,58314
1747907046951.219,57,58456
1747907046952.219,57,58575
1747907046953.219,57,58690
1747907046954.219,57,58810
1747907046955.219,57,58942
1747907046956.219,57,59061
1747907046957.219,57,59182
1747907046958.219,57,59289
1747907046959.219,57,59388
1747907046960.219,58,59485
1747907046961.219,58,59566
1747907046962.219,58,59637
1747907046963.219,58,59683
1747907046964.219,58,59741
1747907046965.219,58,59773
1747907046966.219,58,59804
1747907046967.156,58,59821
1747907046968.156,58,59845
1747907046969.156,58,59856
1747907046970.156,58,59876
1747907046971.1558,59,59887
1747907046972.156,59,59899
1747907046973.156,59,59901
1747907046974.156,59,59918
1747907046975.156,59,59925
1747907046976.156,59,59936
1747907046977.156,59,59941
1747907046978.156,59,59958
1747907046979.156,59,59958
1747907046980.156,59,59969
1747907046981.156,59,59984
1747907046982.156,60,59981
1747907046983.0,60,59977
1747907046984.0,60,59979
1747907046985.0,60,59983
1747907046986.0,60,59991
1747907046987.0,60,59996
1747907046988.0,60,59987
1747907046989.0,60,59990
1747907046990.0,60,59980
1747907046991.0,60,59987
1747907046992.0,60,59988
1747907046993.0,61,59996
1747907046994.0,61,59984
1747907046995.0,61,59996
1747907046996.0,61,59980
1747907046997.0,61,59979
1747907046998.0,61,59986
1747907046998.875,61,59982
1747907046999.875,61,59989
1747907047000.875,61,59998
1747907047001.875,61,59974
1747907047002.875,61,59985
1747907047003.875,62,59997
1747907047004.875,62,59985
1747907047005.875,62,59992
1747907047006.875,62,60000
1747907047007.875,62,59998
1747907047008.875,62,59985
1747907047009.875,62,59982
1747907047010.875,62,59984
1747907047011.875,62,59980
1747907047012.875,62,60003
1747907047013.875,62,59989
1747907047014.781,63,59989
1747907047015.781,63,59977
1747907047016.781,63,59975
1747907047017.781,63,59977
1747907047018.781,63,59994
1747907047019.781,63,59975
1747907047020.781,63,59985
1747907047021.781,63,59987
1747907047022.781,63,59985
1747907047023.781,63,59994
1747907047024.781,63,59979
1747907047025.781,64,59972
1747907047026.781,64,59976
1747907047027.781,64,59972
1747907047028.781,64,59979
1747907047029.781,64,59978
1747907047030.625,64,59981
1747907047031.625,64,59988
1747907047032.625,64,59988
1747907047033.625,64,59983
1747907047034.625,64,59979
1747907047035.625,64,59979
1747907047036.625,65,59986
1747907047037.625,65,59982
1747907047038.625,65,59981
1747907047039.625,65,59980
1747907047040.625,65,59983
1747907047041.625,65,59982
1747907047042.625,65,59981
1747907047043.625,65,59985
1747907047044.625,65,59983
1747907047045.625,65,59980
1747907047046.5,65,59977
1747907047047.5,66,59987
1747907047048.5,66,59985
1747907047049.5,66,59973
1747907047050.5,66,59976
1747907047051.5,66,59992
1747907047052.5,66,59983
1747907047053.5,66,59989
1747907047054.5,66,59982
1747907047055.5,66,59996
1747907047056.5,66,59997
1747907047057.5,66,59975
1747907047058.5,67,59980
1747907047059.5,67,59989
1747907047060.5,67,59977
1747907047061.5,67,59980
1747907047062.406,67,59978
1747907047063.406,67,59976
1747907047064.406,67,59986
1747907047065.406,67,59987
1747907047066.406,67,59987
1747907047067.406,67,59978
1747907047068.406,67,59989
1747907047069.406,68,59981
1747907047070.406,68,59983
1747907047071.406,68,59978
1747907047072.406,68,59989
1747907047073.406,68,59976
1747907047074.406,68,59991
1747907047075.406,68,59991
1747907047076.406,68,59993
1747907047077.406,68,59978
1747907047078.281,68,59995
1747907047079.281,68,59988
1747907047080.281,69,59978
1747907047081.281,69,59989
1747907047082.281,69,59988
1747907047083.281,69,59987
1747907047084.281,69,59985
1747907047085.281,69,59985
1747907047086.281,69,59988
1747907047087.281,69,59984
1747907047088.281,69,59990
1747907047089.281,69,59984
1747907047090.281,69,59981
1747907047091.281,70,59981
1747907047092.281,70,59979
1747907047093.281,70,59978
1747907047094.187,70,59981
1747907047095.188,70,59975
1747907047096.187,70,59991
1747907047097.188,70,59986
1747907047098.187,70,59983
1747907047099.188,70,59977
1747907047100.188,70,59989
1747907047101.187,70,59987
1747907047102.188,71,59977
1747907047103.187,71,59988
1747907047104.188,71,59998
1747907047105.187,71,59984
1747907047106.188,71,59989
1747907047107.187,71,59979
1747907047108.188,71,59980
1747907047109.1868,71,59992
1747907047110.031,71,59980
1747907047111.031,71,59989
1747907047112.031,71,59989
1747907047113.031,72,59972
1747907047114.031,72,59974
1747907047115.031,72,59983
1747907047116.031,72,59984
1747907047117.031,72,59990
1747907047118.031,72,59985
1747907047119.031,72,59977
1747907047120.031,72,59982
1747907047121.031,72,59981
1747907047122.031,72,59981
1747907047123.031,72,59990
1747907047124.031,73,59983
1747907047125.031,73,59988
1747907047125.938,73,59971
1747907047126.937,73,59979
1747907047127.938,73,60000
1747907047128.937,73,59989
1747907047129.938,73,59992
1747907047130.937,73,59992
1747907047131.938,73,59988
1747907047132.937,73,59983
1747907047133.938,73,59961
1747907047134.937,74,59187
1747907047135.938,74,55588
1747907047136.937,74,51720
1747907047137.938,74,48067
1747907047138.937,74,44747
1747907047139.937,74,41887
1747907047140.938,74,39391
1747907047141.812,74,37337
1747907047142.813,74,35713
1747907047143.812,74,34456
1747907047144.813,74,33553
1747907047145.812,75,32923
1747907047146.813,75,32524
1747907047147.812,75,32288
1747907047148.813,75,32184
1747907047149.812,75,32183
1747907047150.812,75,32251
1747907047151.813,75,32350
1747907047152.812,75,32454
1747907047153.813,75,32553
1747907047154.812,75,32646
1747907047155.813,75,32729
1747907047156.812,76,32799
1747907047157.719,76,32837
1747907047158.719,76,32865
1747907047159.719,76,32883
1747907047160.719,76,32896
1747907047161.719,76,32902
1747907047162.719,76,32906
1747907047163.719,76,32902
1747907047164.719,76,32903
1747907047165.719,76,32913
1747907047166.719,76,32925
1747907047167.719,77,32921
1747907047168.719,77,32909
1747907047169.719,77,32899
1747907047170.719,77,32883
1747907047171.719,77,32869
1747907047172.719,77,32851
1747907047173.594,77,32824
1747907047174.594,77,32795
1747907047175.594,77,32780
1747907047176.594,77,32765
1747907047177.594,77,32764
1747907047178.594,78,32761
1747907047179.594,78,32751
1747907047180.594,78,32747
1747907047181.594,78,32755
1747907047182.594,78,32770
1747907047183.594,78,32782
1747907047184.594,78,32781
1747907047185.594,78,32785
1747907047186.594,78,32778
1747907047187.594,78,32769
1747907047188.594,78,32773
1747907047189.469,79,32766
1747907047190.469,79,32745
1747907047191.469,79,32729
1747907047192.469,79,32715
1747907047193.469,79,32708
1747907047194.469,79,32706
1747907047195.469,79,32708
1747907047196.469,79,32716
1747907047197.469,79,32734
1747907047198.469,79,32743
1747907047199.469,79,32755
1747907047200.469,80,32753
1747907047201.469,80,32750
1747907047202.469,80,32735
1747907047203.469,80,32725
1747907047204.469,80,32709
1747907047205.344,80,32691
1747907047206.344,80,32670
1747907047207.344,80,32665
1747907047208.344,80,32670
1747907047209.344,80,32681
1747907047210.344,80,32684
1747907047211.344,81,32688
1747907047212.344,81,32684
1747907047213.344,81,32693
1747907047214.344,81,32702
1747907047215.344,81,32711
1747907047216.3442,81,32711
1747907047217.344,81,32695
1747907047218.344,81,32682
1747907047219.344,81,32675
1747907047220.344,81,32673
1747907047221.219,81,32657
1747907047222.219,82,32642
1747907047223.219,82,32635
1747907047224.219,82,32639
1747907047225.219,82,32648
1747907047226.219,82,32661
1747907047227.219,82,32672
1747907047228.219,82,32680
1747907047229.219,82,32695
1747907047230.219,82,32707
1747907047231.219,82,32705
1747907047232.219,82,32703
1747907047233.219,83,32692
1747907047234.219,83,32680
1747907047235.219,83,32659
1747907047236.219,83,32637
1747907047237.125,83,32621
1747907047238.125,83,32605
1747907047239.125,83,32604
1747907047240.125,83,32611
1747907047241.125,83,32619
1747907047242.125,83,32619
1747907047243.125,83,32619
1747907047244.125,84,32627
1747907047245.125,84,32651
1747907047246.125,84,32707
1747907047247.125,84,32784
1747907047248.125,84,32875
1747907047249.125,84,32993
1747907047250.125,84,33143
1747907047251.125,84,33314
1747907047252.125,84,33513
1747907047253.0,84,33713
1747907047254.0,84,33921
1747907047255.0,85,34119
1747907047256.0,85,34328
1747907047257.0,85,34544
1747907047258.0,85,34774
1747907047259.0,85,35019
1747907047260.0,85,35271
1747907047261.0,85,35537
1747907047262.0,85,35810
1747907047263.0,85,36083
1747907047264.0,85,36356
1747907047265.0,85,36625
1747907047266.0,86,36891
1747907047267.0,86,37137
1747907047268.0,86,37370
1747907047268.875,86,37591
1747907047269.875,86,37765
1747907047270.875,86,37949
1747907047271.875,86,38138
1747907047272.875,86,38326
1747907047273.875,86,38503
1747907047274.875,86,38674
1747907047275.875,86,38851
1747907047276.875,87,39046
1747907047277.875,87,39265
1747907047278.875,87,39491
1747907047279.875,87,39711
1747907047280.875,87,39923
1747907047281.875,87,40124
1747907047282.875,87,40329
1747907047283.875,87,40531
1747907047284.719,87,40717
1747907047285.719,87,40890
1747907047286.719,87,41055
1747907047287.719,88,41214
1747907047288.719,88,41378
1747907047289.719,88,41541
1747907047290.719,88,41701
1747907047291.719,88,41861
1747907047292.719,88,42017
1747907047293.719,88,42187
1747907047294.719,88,42358
1747907047295.719,88,42527
1747907047296.719,88,42689
1747907047297.719,88,42845
1747907047298.719,89,43006
1747907047299.719,89,43172
1747907047300.625,89,43326
1747907047301.625,89,43480
1747907047302.625,89,43639
1747907047303.625,89,43800
1747907047304.625,89,43956
1747907047305.625,89,44111
1747907047306.625,89,44265
1747907047307.625,89,44422
1747907047308.625,89,44594
1747907047309.625,90,44765
1747907047310.625,90,44928
1747907047311.625,90,45085
1747907047312.625,90,45235
1747907047313.625,90,45381
1747907047314.625,90,45522
1747907047315.625,90,45659
1747907047316.531,90,45786
1747907047317.531,90,45907
1747907047318.531,90,46035
1747907047319.531,90,46169
1747907047320.531,91,46310
1747907047321.531,91,46464
1747907047322.531,91,46620
1747907047323.531,91,46773
1747907047324.531,91,46934
1747907047325.531,91,47101
1747907047326.531,91,47260
1747907047327.531,91,47419
1747907047328.531,91,47573
1747907047329.531,91,47725
1747907047330.5308,91,47862
1747907047331.531,92,47996
1747907047332.406,92,48122
1747907047333.406,92,48260
1747907047334.406,92,48401
1747907047335.406,92,48555
1747907047336.406,92,48714
1747907047337.406,92,48892
1747907047338.406,92,49103
1747907047339.406,92,49282
1747907047340.406,92,49494
1747907047341.406,92,49719
1747907047342.406,93,49935
1747907047343.406,93,50138
1747907047344.406,93,50331
1747907047345.406,93,50503
1747907047346.406,93,50670
1747907047347.406,93,50819
1747907047348.281,93,50944
1747907047349.281,93,51044
1747907047350.281,93,51128
1747907047351.281,93,51203
1747907047352.281,93,51271
1747907047353.281,94,51343
1747907047354.281,94,51410
1747907047355.281,94,51466
1747907047356.281,94,51533
1747907047357.281,94,51610
1747907047358.281,94,51692
1747907047359.281,94,51779
1747907047360.281,94,51858
1747907047361.281,94,51930
1747907047362.281,94,51989
1747907047363.281,94,52041
1747907047364.156,95,52070
1747907047365.156,95,52089
1747907047366.156,95,52106
1747907047367.156,95,52114
1747907047368.156,95,52133
1747907047369.1558,95,52139
1747907047370.156,95,52140
1747907047371.156,95,52134
1747907047372.156,95,52145
1747907047373.156,95,52166
1747907047374.156,95,52196
1747907047375.156,96,52230
1747907047376.156,96,52276
1747907047377.156,96,52334
1747907047378.156,96,52418
1747907047379.156,96,52518
1747907047380.031,96,52611
1747907047381.031,96,52703
1747907047382.031,96,52798
1747907047383.031,96,52897
1747907047384.031,96,53002
1747907047385.031,96,53112
1747907047386.031,97,53224
1747907047387.031,97,53330
1747907047388.031,97,53441
1747907047389.031,97,53554
1747907047390.031,97,53662
1747907047391.031,97,53768
1747907047392.031,97,53869
1747907047393.0308,97,53963
1747907047394.031,97,54054
1747907047395.031,97,54141
1747907047395.969,97,54217
1747907047396.969,98,54290
1747907047397.969,98,54362
1747907047398.969,98,54438
1747907047399.969,98,54514
1747907047400.969,98,54587
1747907047401.969,98,54667
1747907047402.969,98,54743
1747907047403.969,98,54828
1747907047404.969,98,54930
1747907047405.969,98,55032
1747907047406.969,98,55110
1747907047407.969,99,55184
1747907047408.969,99,55254
1747907047409.969,99,55318
1747907047410.969,99,55384
1747907047411.875,99,55435
1747907047412.875,99,55482
1747907047413.875,99,55537
1747907047414.875,99,55592
1747907047415.875,99,55659
1747907047416.875,99,55729
1747907047417.875,99,55800
1747907047418.875,100,55877
1747907047419.875,100,55966
1747907047420.875,100,56057
1747907047421.875,100,56143
1747907047422.875,100,56228
1747907047423.875,100,56307
1747907047424.875,100,56371
1747907047425.875,100,56431
1747907047426.875,100,56484
1747907047427.7192,100,56524
1747907047428.719,100,56556
1747907047429.719,101,56595
1747907047430.719,101,56635
1747907047431.719,101,56689
1747907047432.719,101,56744
1747907047433.719,101,56812
1747907047434.719,101,56886
1747907047435.719,101,56976
1747907047436.719,101,57082
1747907047437.719,101,57183
1747907047438.719,101,57274
1747907047439.719,101,57362
1747907047440.719,102,57430
1747907047441.719,102,57490
1747907047442.719,102,57560
1747907047443.594,102,57604
1747907047444.594,102,57632
1747907047445.594,102,57653
1747907047446.594,102,57673
1747907047447.594,102,57709
1747907047448.594,102,57748
1747907047449.594,102,57782
1747907047450.594,102,57827
1747907047451.594,103,57891
1747907047452.594,103,57974
1747907047453.594,103,58072
1747907047454.594,103,58170
1747907047455.594,103,58255
1747907047456.594,103,58331
1747907047457.594,103,58399
1747907047458.594,103,58465
1747907047459.5,103,58508
1747907047460.5,103,58537
1747907047461.5,103,58561
1747907047462.5,104,58578
1747907047463.5,104,58590
1747907047464.5,104,58616
1747907047465.5,104,58647
1747907047466.5,104,58681
1747907047467.5,104,58727
1747907047468.5,104,58779
1747907047469.5,104,58841
1747907047470.5,104,58890
1747907047471.5,104,58938
1747907047472.5,104,58993
1747907047473.5,105,59045
1747907047474.5,105,59091
1747907047475.375,105,59128
1747907047476.375,105,59150
1747907047477.375,105,59178
1747907047478.375,105,59202
1747907047479.375,105,59231
1747907047480.375,105,59259
1747907047481.375,105,59282
1747907047482.375,105,59297
1747907047483.375,105,59328
1747907047484.375,106,59358
1747907047485.375,106,59396
1747907047486.375,106,59429
1747907047487.375,106,59453
1747907047488.375,106,59480
1747907047489.375,106,59503
1747907047490.375,106,59524
1747907047491.281,106,59546
1747907047492.281,106,59556
1747907047493.281,106,59569
1747907047494.281,106,59586
1747907047495.281,107,59597
1747907047496.281,107,59615
1747907047497.281,107,59624
1747907047498.281,107,59643
1747907047499.281,107,59651
1747907047500.281,107,59674
1747907047501.281,107,59690
1747907047502.281,107,59694
1747907047503.281,107,59708
1747907047504.281,107,59716
1747907047505.281,107,59729
1747907047506.281,108,59733
1747907047507.125,108,59738
1747907047508.125,108,59744
1747907047509.125,108,59746
1747907047510.125,108,59756
1747907047511.125,108,59762
1747907047512.125,108,59762
1747907047513.125,108,59778
1747907047514.125,108,59787
1747907047515.125,108,59798
1747907047516.125,108,59802
1747907047517.125,109,59809
1747907047518.125,109,59829
1747907047519.125,109,59842
1747907047520.125,109,59836
1747907047521.125,109,59839
1747907047522.125,109,59836
1747907047523.0,109,59838
1747907047524.0,109,59839
1747907047525.0,109,59855
1747907047526.0,109,59852
1747907047527.0,109,59851
1747907047528.0,110,59848
1747907047529.0,110,59870
1747907047530.0,110,59862
1747907047531.0,110,59874
1747907047532.0,110,59866
1747907047533.0,110,59879
1747907047534.0,110,59889
1747907047535.0,110,59886
1747907047536.0,110,59893
1747907047537.0,110,59887
1747907047538.0,110,59897
1747907047539.031,111,59896
1747907047540.031,111,59893
1747907047541.0308,111,59902
1747907047542.031,111,59893
1747907047543.031,111,59905
1747907047544.031,111,59912
1747907047545.031,111,59904
1747907047546.031,111,59904
1747907047547.031,111,59914
1747907047548.031,111,59906
1747907047549.031,111,59920
1747907047550.031,112,59913
1747907047551.031,112,59938
1747907047552.031,112,59935
1747907047553.031,112,59941
1747907047554.031,112,59941
1747907047554.812,112,59941
1747907047555.813,112,59938
1747907047556.812,112,59938
1747907047557.813,112,59928
1747907047558.812,112,59934
1747907047559.813,112,59925
1747907047560.812,113,59929
1747907047561.812,113,59934
1747907047562.813,113,59944
1747907047563.812,113,59949
1747907047564.813,113,59940
1747907047565.812,113,59937
1747907047566.813,113,59950
1747907047567.812,113,59944
1747907047568.813,113,59947
1747907047569.812,113,59947
1747907047570.688,113,59962
1747907047571.687,114,59954
1747907047572.687,114,59958
1747907047573.688,114,59960
1747907047574.687,114,59951
1747907047575.688,114,59961
1747907047576.687,114,59956
1747907047577.688,114,59972
1747907047578.687,114,59948
1747907047579.688,114,59955
1747907047580.687,114,59968
1747907047581.688,114,59968
1747907047582.687,115,59955
1747907047583.688,115,59965
1747907047584.687,115,59952
1747907047585.6882,115,59969
1747907047586.563,115,59966
1747907047587.562,115,59960
1747907047588.563,115,59968
1747907047589.562,115,59957
1747907047590.563,115,59970
1747907047591.562,115,59971
1747907047592.563,115,59960
1747907047593.5618,116,59957
1747907047594.563,116,59967
1747907047595.562,116,59968
1747907047596.563,116,59967
1747907047597.562,116,59970
1747907047598.563,116,59964
1747907047599.562,116,59972
1747907047600.563,116,59975
1747907047601.562,116,59965
1747907047602.406,116,59959
1747907047603.406,116,59971
1747907047604.406,117,59968
1747907047605.406,117,59976
1747907047606.406,117,59968
1747907047607.406,117,59974
1747907047608.406,117,59966
1747907047609.406,117,59972
1747907047610.406,117,59969
1747907047611.406,117,59974
1747907047612.406,117,59977
1747907047613.406,117,59985
1747907047614.406,117,59984
1747907047615.406,118,59982
1747907047616.406,118,59968
1747907047617.406,118,59978
1747907047618.344,118,59976
1747907047619.344,118,59971
1747907047620.344,118,59979
1747907047621.344,118,59973
1747907047622.344,118,59980
1747907047623.344,118,59983
1747907047624.344,118,59977
1747907047625.344,118,59977
1747907047626.344,119,59976
1747907047627.344,119,59972
1747907047628.344,119,59976
1747907047629.344,119,59989
1747907047630.344,119,59982
1747907047631.344,119,59978
1747907047632.344,119,59987
1747907047633.344,119,59972
1747907047634.219,119,59981
1747907047635.219,119,59987
1747907047636.219,119,59983
1747907047637.219,120,59983
1747907047638.2192,120,59976
1747907047639.219,120,59975
1747907047640.219,120,59986
1747907047641.219,120,59983
1747907047642.219,120,59981
1747907047643.219,120,59986
1747907047644.219,120,59980
1747907047645.219,120,59975
1747907047646.219,120,59998
1747907047647.219,120,59999
1747907047648.219,121,59980
1747907047649.219,121,59985
1747907047650.094,121,59991
1747907047651.094,121,59975
1747907047652.094,121,59992
1747907047653.094,121,59993
1747907047654.094,121,59988
1747907047655.094,121,59999
1747907047656.094,121,59986
1747907047657.094,121,59995
1747907047658.094,121,60001
1747907047659.094,122,59991
1747907047660.094,122,59988
1747907047661.094,122,59993
1747907047662.0942,122,59994
1747907047663.094,122,59984
1747907047664.094,122,59988
1747907047665.094,122,59995
1747907047665.969,122,59986
1747907047666.969,122,59981
1747907047667.969,122,59990
1747907047668.969,122,59988
1747907047669.969,123,59986
1747907047670.969,123,59977
1747907047671.969,123,59995
1747907047672.969,123,59979
1747907047673.969,123,59987
1747907047674.969,123,59971
1747907047675.969,123,59979
1747907047676.969,123,59987
1747907047677.969,123,59983
1747907047678.969,123,59987
1747907047679.969,123,59989
1747907047680.969,124,59990
1747907047681.844,124,59975
1747907047682.844,124,59971
1747907047683.844,124,59977
1747907047684.844,124,59971
1747907047685.844,124,59982
1747907047686.844,124,59989
1747907047687.844,124,59999
1747907047688.844,124,59982
1747907047689.844,124,59987
1747907047690.844,124,59980
1747907047691.844,125,59993
1747907047692.844,125,59980
1747907047693.844,125,59996
1747907047694.844,125,59985
1747907047695.844,125,59991
1747907047696.844,125,59985
1747907047697.75,125,59968
1747907047698.75,125,59991
1747907047699.75,125,59988
1747907047700.75,125,59991
1747907047701.75,125,59988
1747907047702.75,126,59977
1747907047703.75,126,59986
1747907047704.75,126,59980
1747907047705.75,126,59990
1747907047706.75,126,59975
1747907047707.75,126,59991
1747907047708.75,126,59982
1747907047709.75,126,59992
1747907047710.75,126,59991
1747907047711.75,126,59976
1747907047712.75,126,59999
1747907047713.625,127,59992
1747907047714.625,127,59992
1747907047715.625,127,59990
1747907047716.625,127,59996
1747907047717.625,127,59998
1747907047718.625,127,59988
1747907047719.625,127,60001
1747907047720.625,127,59997
1747907047721.625,127,59997
1747907047722.625,127,59984
1747907047723.625,127,59994
1747907047724.625,128,59984
1747907047725.625,128,59982
1747907047726.625,128,59990
1747907047727.625,128,59985
1747907047728.625,128,59979
1747907047729.5,128,59983
1747907047730.5,128,59993
1747907047731.5,128,59996
1747907047732.5,128,59987
1747907047733.5,128,59993
1747907047734.5,128,59989
1747907047735.5,129,59981
1747907047736.5,129,59989
1747907047737.5,129,59978
1747907047738.5,129,59993
1747907047739.5,129,59989
1747907047740.5,129,59982
1747907047741.5,129,59991
1747907047742.5,129,59982
1747907047743.5,129,60000
1747907047744.5,129,59990
1747907047745.375,129,59983
1747907047746.375,130,59996
1747907047747.375,130,59987
1747907047748.375,130,59997
1747907047749.375,130,59998
1747907047750.375,130,59984
1747907047751.375,130,59998
1747907047752.375,130,59985
1747907047753.375,130,59991
1747907047754.375,130,59990
1747907047755.375,130,59978
1747907047756.375,130,59977
1747907047757.375,131,60002
1747907047758.375,131,59998
1747907047759.375,131,59991
1747907047760.375,131,59991
1747907047761.25,131,59992
1747907047762.25,131,59994
1747907047763.25,131,59998
1747907047764.25,131,59982
1747907047765.25,131,59993
1747907047766.25,131,59987
1747907047767.25,131,59984
1747907047768.25,132,59988
1747907047769.25,132,59990
1747907047770.25,132,59991
1747907047771.25,132,59990
1747907047772.25,132,59990
1747907047773.25,132,59982
1747907047774.25,132,59983
1747907047775.25,132,59988
1747907047776.25,132,59998
1747907047777.125,132,59987
1747907047778.125,132,59992
1747907047779.125,133,59988
1747907047780.125,133,59998
1747907047781.125,133,59979
1747907047782.125,133,59992
1747907047783.125,133,60003
1747907047784.125,133,59987
1747907047785.125,133,59991
1747907047786.125,133,59985
1747907047787.125,133,59989
1747907047788.125,133,59987
1747907047789.125,133,59981
1747907047790.125,134,59979
1747907047791.125,134,59994
1747907047792.125,134,59981
1747907047793.031,134,59990
1747907047794.031,134,59999
1747907047795.031,134,59991
1747907047796.031,134,59992
1747907047797.031,134,60004
1747907047798.031,134,59991
1747907047799.031,134,59989
1747907047800.031,134,59990
1747907047801.031,135,59990
1747907047802.031,135,59998
1747907047803.031,135,59987
1747907047804.031,135,59989
1747907047805.031,135,59987
1747907047806.031,135,59980
1747907047807.031,135,60000
1747907047808.031,135,59989
1747907047809.0,135,59988
1747907047810.0,135,59996
1747907047811.0,135,59984
1747907047812.0,136,59994
1747907047813.0,136,59990
1747907047814.0,136,60000
1747907047815.0,136,59989
1747907047816.0,136,59998
1747907047817.0,136,59998
1747907047818.0,136,59991
1747907047819.0,136,59996
1747907047820.0,136,59999
1747907047821.0,136,59993
1747907047822.0,136,59990
1747907047823.0,137,60002
1747907047824.0,137,59992
1747907047824.906,137,59976
1747907047825.906,137,59994
1747907047826.906,137,59999
1747907047827.906,137,59994
1747907047828.906,137,59998
1747907047829.906,137,59990
1747907047830.906,137,59990
1747907047831.906,137,59991
1747907047832.906,137,59997
1747907047833.906,138,59980
1747907047834.906,138,59988
1747907047835.906,138,59974
1747907047836.906,138,59977
1747907047837.9058,138,59988
1747907047838.906,138,59983
1747907047839.906,138,59989
1747907047840.688,138,59998
1747907047841.687,138,59987
1747907047842.688,138,59990
1747907047843.687,138,59996
1747907047844.688,139,59989
1747907047845.687,139,59977
1747907047846.688,139,59983
1747907047847.687,139,59990
1747907047848.688,139,59983
1747907047849.687,139,59987
1747907047850.688,139,59992
1747907047851.687,139,59982
1747907047852.688,139,59989
1747907047853.687,139,59982
1747907047854.688,139,59999
1747907047855.687,140,59994
1747907047856.594,140,59992
1747907047857.594,140,59989
1747907047858.594,140,59996
1747907047859.594,140,59985
1747907047860.594,140,59980
1747907047861.594,140,59993
1747907047862.594,140,59981
1747907047863.594,140,59987
1747907047864.594,140,59982
1747907047865.594,140,59988
1747907047866.594,141,59989
1747907047867.594,141,59988
1747907047868.594,141,59979
1747907047869.594,141,59986
1747907047870.594,141,59987
1747907047871.594,141,60001
1747907047872.469,141,59999
1747907047873.469,141,59976
1747907047874.469,141,59984
1747907047875.469,141,59986
1747907047876.469,141,59986
1747907047877.469,142,59990
1747907047878.469,142,59979
1747907047879.469,142,59984
1747907047880.469,142,59984
1747907047881.469,142,59987
1747907047882.469,142,59980
1747907047883.469,142,59988
1747907047884.469,142,59995
1747907047885.469,142,59987
1747907047886.469,142,59986
1747907047887.469,142,59979
1747907047888.344,143,59997
1747907047889.344,143,59984
1747907047890.344,143,59979
1747907047891.344,143,59990
1747907047892.344,143,59977
1747907047893.344,143,59989
1747907047894.344,143,59978
1747907047895.344,143,59981
1747907047896.344,143,59992
1747907047897.344,143,59981
1747907047898.344,143,59981
1747907047899.344,144,59984
1747907047900.344,144,59982
1747907047901.344,144,59985
1747907047902.344,144,59991
1747907047903.344,144,59987
1747907047904.25,144,59989
1747907047905.25,144,60002
1747907047906.25,144,60006
1747907047907.25,144,59996
1747907047908.25,144,59986
1747907047909.25,144,59992
1747907047910.25,145,59988
1747907047911.25,145,59992
1747907047912.25,145,60002
1747907047913.25,145,59982
1747907047914.25,145,59983
1747907047915.25,145,59975
1747907047916.25,145,59994
1747907047917.25,145,59989
1747907047918.25,145,59987
1747907047919.25,145,59984
1747907047920.063,145,59986
1747907047921.062,146,59985
1747907047922.0632,146,59987
1747907047923.062,146,59986
1747907047924.063,146,59995
1747907047925.062,146,59993
1747907047926.063,146,59983
1747907047927.062,146,59979
1747907047928.063,146,59988
1747907047929.062,146,59987
1747907047930.063,146,60001
1747907047931.062,146,59990
1747907047932.062,147,59980
1747907047933.063,147,59989
1747907047934.062,147,59992
1747907047935.063,147,59982
1747907047936.0,147,59994
1747907047937.0,147,59989
1747907047938.0,147,59977
1747907047939.0,147,59990
1747907047940.0,147,59999
1747907047941.0,147,59982
1747907047942.0,147,59992
1747907047943.0,148,59983
1747907047944.0,148,59987
1747907047945.0,148,60004
1747907047946.0,148,59974
1747907047947.0,148,59982
1747907047948.0,148,59988
1747907047949.0,148,59984
1747907047950.0,148,59992
1747907047951.0,148,59984
1747907047951.875,148,59990
1747907047952.875,148,59989
1747907047953.875,149,59982
1747907047954.875,149,59989
1747907047955.875,149,59987
1747907047956.875,149,59975
1747907047957.875,149,59972
1747907047958.875,149,59965
1747907047959.875,149,59979
1747907047960.875,149,59979
1747907047961.875,149,59981
1747907047962.875,149,59979
1747907047963.875,149,59971
1747907047964.875,150,59992
1747907047965.875,150,59985
1747907047966.875,150,60000
1747907047967.781,150,59968
1747907047968.781,150,59986
1747907047969.781,150,59987
1747907047970.781,150,59976
1747907047971.781,150,59979
1747907047972.781,150,59980
1747907047973.781,150,59979
1747907047974.781,150,59968
1747907047975.781,151,59975
1747907047976.781,151,59993
1747907047977.781,151,59968
1747907047978.781,151,59979
1747907047979.781,151,59973
1747907047980.781,151,59981
1747907047981.781,151,59967
1747907047982.781,151,59968
1747907047983.656,151,59958
1747907047984.656,151,59962
1747907047985.656,151,59950
1747907047986.656,152,59967
1747907047987.656,152,59961
1747907047988.656,152,59973
1747907047989.656,152,59967
1747907047990.656,152,59970
1747907047991.656,152,59968
1747907047992.656,152,59966
1747907047993.656,152,59957
1747907047994.656,152,59963
1747907047995.656,152,59963
1747907047996.656,152,59959
1747907047997.656,153,59960
1747907047998.656,153,59962
1747907047999.5,153,59975
1747907048000.5,153,59965
1747907048001.5,153,59961
1747907048002.5,153,59953
1747907048003.5,153,59970
1747907048004.5,153,59978
1747907048005.5,153,59975
1747907048006.5,153,59973
1747907048007.5,153,59962
1747907048008.5,154,59974
1747907048009.5,154,59968
1747907048010.5,154,59990
1747907048011.5,154,59977
1747907048012.5,154,59981
1747907048013.5,154,59980
1747907048014.5,154,59979
1747907048015.406,154,59990
1747907048016.406,154,59988
1747907048017.406,154,59990
1747907048018.406,154,59996
1747907048019.406,155,59983
1747907048020.406,155,59992
1747907048021.406,155,59982
1747907048022.406,155,59984
1747907048023.406,155,59974
1747907048024.406,155,59977
1747907048025.4058,155,59994
1747907048026.406,155,59980
1747907048027.406,155,59994
1747907048028.406,155,59975
1747907048029.406,155,59986
1747907048030.406,156,59977
1747907048031.313,156,59976
1747907048032.312,156,59970
1747907048033.313,156,59966
1747907048034.312,156,59972
1747907048035.312,156,59966
1747907048036.313,156,59962
1747907048037.312,156,59967
1747907048038.313,156,59944
1747907048039.3118,156,59953
1747907048040.313,156,59956
1747907048041.312,157,59945
1747907048042.313,157,59934
1747907048043.312,157,59954
1747907048044.313,157,59929
1747907048045.312,157,59927
1747907048046.313,157,59921
1747907048047.219,157,59908
1747907048048.219,157,59903
1747907048049.219,157,59915
1747907048050.219,157,59911
1747907048051.219,157,59892
1747907048052.219,158,59895
1747907048053.219,158,59891
1747907048054.219,158,59885
1747907048055.219,158,59901
1747907048056.219,158,59893
1747907048057.219,158,59906
1747907048058.219,158,59905
1747907048059.219,158,59907
1747907048060.219,158,59924
1747907048061.219,158,59898
1747907048062.219,158,59919
1747907048063.125,159,59921
1747907048064.125,159,59909
1747907048065.125,159,59912
1747907048066.125,159,59894
1747907048067.125,159,59897
1747907048068.125,159,59903
1747907048069.125,159,59902
1747907048070.125,159,59895
1747907048071.125,159,59897
1747907048072.125,159,59887
1747907048073.125,159,59895
1747907048074.125,160,59901
1747907048075.125,160,59905
1747907048076.125,160,59894
1747907048077.125,160,59897
1747907048078.125,160,59897
1747907048078.969,160,59903
1747907048079.969,160,59901
1747907048080.969,160,59894
1747907048081.969,160,59889
1747907048082.969,160,59888
1747907048083.9692,160,59880
1747907048084.969,161,59883
1747907048085.969,161,59877
1747907048086.969,161,59875
1747907048087.969,161,59879
1747907048088.969,161,59877
1747907048089.969,161,59885
1747907048090.969,161,59884
1747907048091.969,161,59863
1747907048092.969,161,59869
1747907048093.969,161,59873
1747907048094.875,161,59865
1747907048095.875,162,59860
1747907048096.875,162,59869
1747907048097.875,162,59862
1747907048098.875,162,59850
1747907048099.875,162,59854
1747907048100.875,162,59863
1747907048101.875,162,59858
1747907048102.875,162,59849
1747907048103.875,162,59859
1747907048104.875,162,59850
1747907048105.875,162,59851
1747907048106.875,163,59858
1747907048107.875,163,59858
1747907048108.875,163,59856
1747907048109.875,163,59845
1747907048110.75,163,59845
1747907048111.75,163,59846
1747907048112.75,163,59842
1747907048113.75,163,59830
1747907048114.75,163,59833
1747907048115.75,163,59839
1747907048116.75,163,59829
1747907048117.75,164,59834
1747907048118.75,164,59829
1747907048119.75,164,59838
1747907048120.75,164,59832
1747907048121.75,164,59841
1747907048122.75,164,59839
1747907048123.75,164,59832
1747907048124.75,164,59823
1747907048125.75,164,59823
1747907048126.625,164,59810
1747907048127.625,164,59817
1747907048128.625,165,59812
1747907048129.625,165,59797
1747907048130.625,165,59792
1747907048131.625,165,59794
1747907048132.625,165,59795
1747907048133.625,165,59787
1747907048134.625,165,59793
1747907048135.625,165,59795
1747907048136.625,165,59800
1747907048137.625,165,59800
1747907048138.625,165,59807
1747907048139.625,166,59799
1747907048140.625,166,59811
1747907048141.625,166,59812
1747907048142.531,166,59798
1747907048143.531,166,59807
1747907048144.531,166,59787
1747907048145.531,166,59777
1747907048146.531,166,59768
1747907048147.531,166,59766
1747907048148.531,166,59755
1747907048149.531,166,59768
1747907048150.531,167,59769
1747907048151.531,167,59757
1747907048152.531,167,59768
1747907048153.531,167,59777
1747907048154.531,167,59783
1747907048155.531,167,59782
1747907048156.531,167,59780
1747907048157.531,167,59783
1747907048158.344,167,59769
1747907048159.344,167,59762
1747907048160.344,167,59764
1747907048161.344,168,59752
1747907048162.344,168,59745
1747907048163.344,168,59742
1747907048164.344,168,59734
1747907048165.344,168,59726
1747907048166.344,168,59722
1747907048167.344,168,59725
1747907048168.344,168,59717
1747907048169.344,168,59725
1747907048170.344,168,59711
1747907048171.344,168,59715
1747907048172.344,169,59718
1747907048173.344,169,59733
1747907048174.25,169,59729
1747907048175.25,169,59707
1747907048176.25,169,59715
1747907048177.25,169,59719
1747907048178.25,169,59706
1747907048179.25,169,59704
1747907048180.25,169,59694
1747907048181.25,169,59697
1747907048182.25,169,59690
1747907048183.25,170,59689
1747907048184.25,170,59684
1747907048185.25,170,59688
1747907048186.25,170,59680
1747907048187.25,170,59680
1747907048188.25,170,59674
1747907048189.25,170,59673
1747907048190.125,170,59670
1747907048191.125,170,59670
1747907048192.125,170,59669
1747907048193.125,170,59654
1747907048194.125,171,59658
1747907048195.125,171,59652
1747907048196.125,171,59652
1747907048197.125,171,59654
1747907048198.125,171,59650
1747907048199.125,171,59649
1747907048200.125,171,59656
1747907048201.125,171,59651
1747907048202.125,171,59647
1747907048203.125,171,59641
1747907048204.125,171,59636
1747907048205.125,172,59633
1747907048206.031,172,59614
1747907048207.031,172,59604
1747907048208.031,172,59592
1747907048209.031,172,59586
1747907048210.031,172,59566
1747907048211.031,172,59560
1747907048212.031,172,59562
1747907048213.031,172,59560
1747907048214.031,172,59561
1747907048215.031,172,59570
1747907048216.031,173,59585
1747907048217.031,173,59591
1747907048218.031,173,59598
1747907048219.031,173,59597
1747907048220.031,173,59585
1747907048221.031,173,59570
1747907048221.906,173,59547
1747907048222.906,173,59528
1747907048223.906,173,59511
1747907048224.906,173,59486
1747907048225.906,173,59465
1747907048226.906,174,59450
1747907048227.906,174,59441
1747907048228.906,174,59440
1747907048229.906,174,59443
1747907048230.906,174,59460
1747907048231.906,174,59473
1747907048232.906,174,59479
1747907048233.906,174,59486
1747907048234.906,174,59479
1747907048235.906,174,59471
1747907048236.906,174,59460
1747907048237.75,175,59440
1747907048238.75,175,59409
1747907048239.75,175,59375
1747907048240.75,175,59342
1747907048241.75,175,59310
1747907048242.75,175,59286
1747907048243.75,175,59268
1747907048244.75,175,59259
1747907048245.75,175,59262
1747907048246.75,175,59266
1747907048247.75,175,59272
1747907048248.75,176,59288
1747907048249.75,176,59292
1747907048250.75,176,59290
1747907048251.75,176,59294
1747907048252.75,176,59283
1747907048253.625,176,59268
1747907048254.625,176,59242
1747907048255.625,176,59211
1747907048256.625,176,59174
1747907048257.625,176,59134
1747907048258.625,176,59101
1747907048259.625,177,59066
1747907048260.625,177,59046
1747907048261.625,177,59033
1747907048262.625,177,59041
1747907048263.625,177,59039
1747907048264.625,177,59042
1747907048265.625,177,59036
1747907048266.625,177,59040
1747907048267.625,177,59041
1747907048268.625,177,59034
1747907048269.562,177,59016
1747907048270.563,178,58987
1747907048271.562,178,58954
1747907048272.563,178,58924
1747907048273.562,178,58896
1747907048274.563,178,58872
1747907048275.562,178,58862
1747907048276.563,178,58838
1747907048277.562,178,58831
1747907048278.563,178,58825
1747907048279.562,178,58819
1747907048280.562,178,58811
1747907048281.563,179,58793
1747907048282.562,179,58780
1747907048283.563,179,58763
1747907048284.562,179,58746
1747907048285.438,179,58714
1747907048286.437,179,58682
1747907048287.438,179,58653
1747907048288.437,179,58624
1747907048289.438,179,58602
1747907048290.437,179,58578
1747907048291.437,179,58559
1747907048292.438,180,58546
1747907048293.437,180,58536
1747907048294.438,180,58537
1747907048295.437,180,58536
1747907048296.438,180,58521
1747907048297.437,180,58502
1747907048298.438,180,58488
1747907048299.437,180,58466
1747907048300.438,180,58459
1747907048301.312,180,58437
1747907048302.313,180,58405
1747907048303.313,181,58368
1747907048304.312,181,58341
1747907048305.313,181,58330
1747907048306.312,181,58322
1747907048307.313,181,58321
1747907048308.312,181,58312
1747907048309.313,181,58314
1747907048310.312,181,58322
1747907048311.313,181,58341
1747907048312.3118,181,58352
1747907048313.313,181,58352
1747907048314.312,182,58336
1747907048315.313,182,58316
1747907048316.312,182,58284
1747907048317.156,182,58247
1747907048318.156,182,58200
1747907048319.156,182,58156
1747907048320.156,182,58131
1747907048321.156,182,58109
1747907048322.156,182,58085
1747907048323.156,182,58075
1747907048324.156,182,58068
1747907048325.156,183,58074
1747907048326.156,183,58096
1747907048327.156,183,58110
1747907048328.156,183,58120
1747907048329.156,183,58127
1747907048330.156,183,58119
1747907048331.156,183,58107
1747907048332.156,183,58092
1747907048333.094,183,58055
1747907048334.094,183,58004
1747907048335.094,183,57951
1747907048336.094,184,57905
1747907048337.094,184,57873
1747907048338.094,184,57843
1747907048339.094,184,57825
1747907048340.094,184,57807
1747907048341.094,184,57802
1747907048342.094,184,57816
1747907048343.094,184,57848
1747907048344.094,184,57881
1747907048345.094,184,57901
1747907048346.094,184,57911
1747907048347.094,185,57903
1747907048348.094,185,57887
1747907048348.969,185,57853
1747907048349.969,185,57809
1747907048350.969,185,57767
1747907048351.969,185,57728
1747907048352.969,185,57689
1747907048353.969,185,57655
1747907048354.969,185,57630
1747907048355.969,185,57604
1747907048356.9692,185,57598
1747907048357.969,186,57608
1747907048358.969,186,57614
1747907048359.969,186,57619
1747907048360.969,186,57624
1747907048361.969,186,57635
1747907048362.969,186,57641
1747907048363.969,186,57645
1747907048364.875,186,57626
1747907048365.875,186,57602
1747907048366.875,186,57571
1747907048367.875,186,57548
1747907048368.875,187,57518
1747907048369.875,187,57499
1747907048370.875,187,57470
1747907048371.875,187,57442
1747907048372.875,187,57441
1747907048373.875,187,57455
1747907048374.875,187,57474
1747907048375.875,187,57483
1747907048376.875,187,57487
1747907048377.875,187,57489
1747907048378.875,187,57489
1747907048379.875,188,57480
1747907048380.8442,188,57467
1747907048381.844,188,57439
1747907048382.844,188,57417
1747907048383.844,188,57384
1747907048384.844,188,57363
1747907048385.844,188,57342
1747907048386.844,188,57320
1747907048387.844,188,57315
1747907048388.844,188,57315
1747907048389.844,188,57312
1747907048390.844,189,57304
1747907048391.844,189,57296
1747907048392.844,189,57288
1747907048393.844,189,57278
1747907048394.844,189,57274
1747907048395.844,189,57268
1747907048396.594,189,57256
1747907048397.594,189,57231
1747907048398.594,189,57196
1747907048399.594,189,57176
1747907048400.594,189,57162
1747907048401.594,190,57143
1747907048402.594,190,57129
1747907048403.594,190,57112
1747907048404.594,190,57104
1747907048405.594,190,57107
1747907048406.594,190,57109
1747907048407.594,190,57113
1747907048408.594,190,57099
1747907048409.594,190,57076
1747907048410.594,190,57056
1747907048411.594,190,57034
1747907048412.469,191,56998
1747907048413.469,191,56962
1747907048414.469,191,56917
1747907048415.469,191,56883
1747907048416.469,191,56852
1747907048417.469,191,56826
1747907048418.469,191,56817
1747907048419.4692,191,56810
1747907048420.469,191,56818
1747907048421.469,191,56835
1747907048422.469,191,56850
1747907048423.469,192,56858
1747907048424.469,192,56862
1747907048425.469,192,56858
1747907048426.469,192,56851
1747907048427.469,192,56840
1747907048428.375,192,56805
1747907048429.375,192,56754
1747907048430.375,192,56712
1747907048431.375,192,56674
1747907048432.375,192,56657
1747907048433.375,192,56630
1747907048434.375,193,56610
1747907048435.375,193,56581
1747907048436.375,193,56569
1747907048437.375,193,56577
1747907048438.375,193,56586
1747907048439.375,193,56603
1747907048440.375,193,56616
1747907048441.375,193,56610
1747907048442.375,193,56604
1747907048443.375,193,56595
1747907048444.25,193,56567
1747907048445.25,194,56530
1747907048446.25,194,56489
1747907048447.25,194,56441
1747907048448.25,194,56397
1747907048449.25,194,56362
1747907048450.25,194,56335
1747907048451.25,194,56315
1747907048452.25,194,56313
1747907048453.25,194,56324
1747907048454.25,194,56335
1747907048455.25,194,56342
1747907048456.25,195,56351
1747907048457.25,195,56356
1747907048458.25,195,56351
1747907048459.25,195,56343
1747907048460.125,195,56323
1747907048461.125,195,56280
1747907048462.125,195,56252
1747907048463.125,195,56223
1747907048464.125,195,56187
1747907048465.125,195,56148
1747907048466.125,195,56108
1747907048467.125,196,56064
1747907048468.125,196,56041
1747907048469.125,196,56031
1747907048470.125,196,56037
1747907048471.125,196,56040
1747907048472.125,196,56046
1747907048473.125,196,56045
1747907048474.125,196,56039
1747907048475.125,196,56029
1747907048476.031,196,56021
1747907048477.031,196,55999
1747907048478.031,197,55980
1747907048479.031,197,55959
1747907048480.031,197,55945
1747907048481.031,197,55919
1747907048482.031,197,55902
1747907048483.031,197,55880
1747907048484.031,197,55868
1747907048485.031,197,55853
1747907048486.031,197,55841
1747907048487.031,197,55832
1747907048488.031,197,55813
1747907048489.031,198,55795
1747907048490.031,198,55774
1747907048491.031,198,55751
1747907048491.906,198,55728
1747907048492.906,198,55694
1747907048493.906,198,55669
1747907048494.906,198,55652
1747907048495.906,198,55638
1747907048496.906,198,55630
1747907048497.906,198,55622
1747907048498.906,198,55611
1747907048499.906,199,55616
1747907048500.906,199,55627
1747907048501.906,199,55643
1747907048502.906,199,55643
1747907048503.906,199,55624
1747907048504.906,199,55600
1747907048505.906,199,55560
1747907048506.906,199,55534
1747907048507.781,199,55502
1747907048508.781,199,55462
1747907048509.7808,199,55428
1747907048510.781,200,55397
1747907048511.781,200,55368
1747907048512.781,200,55351
1747907048513.781,200,55348
1747907048514.781,200,55350
1747907048515.781,200,55361
1747907048516.781,200,55381
1747907048517.781,200,55404
1747907048518.781,200,55415
1747907048519.781,200,55417
1747907048520.781,200,55415
1747907048521.781,201,55400
1747907048522.781,201,55372
1747907048523.656,201,55333
1747907048524.656,201,55281
1747907048525.656,201,55227
1747907048526.656,201,55174
1747907048527.656,201,55120
1747907048528.656,201,55084
1747907048529.656,201,55060
1747907048530.656,201,55048
1747907048531.656,201,55061
1747907048532.656,202,55088
1747907048533.6558,202,55114
1747907048534.656,202,55137
1747907048535.656,202,55150
1747907048536.656,202,55150
1747907048537.656,202,55151
1747907048538.656,202,55138
1747907048539.531,202,55104
1747907048540.531,202,55057
1747907048541.531,202,54998
1747907048542.531,202,54950
1747907048543.531,203,54914
1747907048544.531,203,54882
1747907048545.531,203,54862
1747907048546.531,203,54844
1747907048547.531,203,54844
1747907048548.531,203,54855
1747907048549.531,203,54878
1747907048550.531,203,54902
1747907048551.531,203,54933
1747907048552.531,203,54954
1747907048553.531,203,54968
1747907048554.531,204,54977
1747907048555.375,204,54954
1747907048556.375,204,54922
1747907048557.375,204,54879
1747907048558.375,204,54840
1747907048559.375,204,54809
1747907048560.375,204,54783
1747907048561.375,204,54760
1747907048562.375,204,54734
1747907048563.375,204,54712
1747907048564.375,204,54700
1747907048565.375,205,54686
1747907048566.375,205,54672
1747907048567.375,205,54653
1747907048568.375,205,54636
1747907048569.375,205,54632
1747907048570.375,205,54641
1747907048571.25,205,54631
1747907048572.25,205,54612
1747907048573.25,205,54583
1747907048574.25,205,54554
1747907048575.25,205,54526
1747907048576.25,206,54506
1747907048577.25,206,54484
1747907048578.25,206,54462
1747907048579.25,206,54438
1747907048580.25,206,54422
1747907048581.25,206,54408
1747907048582.25,206,54410
1747907048583.25,206,54403
1747907048584.25,206,54398
1747907048585.25,206,54380
1747907048586.25,206,54362
1747907048587.156,207,54335
1747907048588.156,207,54306
1747907048589.156,207,54291
1747907048590.156,207,54278
1747907048591.156,207,54270
1747907048592.156,207,54260
1747907048593.156,207,54243
1747907048594.156,207,54230
1747907048595.156,207,54219
1747907048596.1558,207,54220
1747907048597.156,207,54216
1747907048598.156,208,54193
1747907048599.156,208,54171
1747907048600.156,208,54138
1747907048601.156,208,54103
1747907048602.156,208,54077
1747907048603.031,208,54034
1747907048604.031,208,53992
1747907048605.031,208,53951
1747907048606.031,208,53914
1747907048607.031,208,53886
1747907048608.031,208,53867
1747907048609.031,209,53869
1747907048610.031,209,53869
1747907048611.031,209,53882
1747907048612.031,209,53910
1747907048613.031,209,53925
1747907048614.031,209,53934
1747907048615.031,209,53930
1747907048616.031,209,53916
1747907048617.031,209,53893
1747907048618.031,209,53861
1747907048618.938,209,53818
1747907048619.937,210,53772
1747907048620.938,210,53731
1747907048621.938,210,53693
1747907048622.937,210,53662
1747907048623.938,210,53641
1747907048624.937,210,53631
1747907048625.938,210,53628
1747907048626.937,210,53649
1747907048627.938,210,53683
1747907048628.937,210,53719
1747907048629.938,210,53752
1747907048630.937,211,53768
1747907048631.938,211,53780
1747907048632.937,211,53779
1747907048633.938,211,53769
1747907048634.7808,211,53740
1747907048635.781,211,53693
1747907048636.781,211,53644
1747907048637.781,211,53597
1747907048638.781,211,53553
1747907048639.781,211,53518
1747907048640.781,211,53490
1747907048641.781,212,53471
1747907048642.781,212,53468
1747907048643.781,212,53485
1747907048644.781,212,53507
1747907048645.781,212,53527
1747907048646.781,212,53544
1747907048647.781,212,53554
1747907048648.781,212,53554
1747907048649.781,212,53567
1747907048650.687,212,53556
1747907048651.688,212,53524
1747907048652.687,213,53482
1747907048653.688,213,53448
1747907048654.687,213,53398
1747907048655.688,213,53349
1747907048656.687,213,53304
1747907048657.688,213,53271
1747907048658.687,213,53249
1747907048659.688,213,53249
1747907048660.687,213,53263
1747907048661.688,213,53269
1747907048662.688,213,53273
1747907048663.687,214,53279
1747907048664.688,214,53292
1747907048665.687,214,53312
1747907048666.594,214,53321
1747907048667.594,214,53310
1747907048668.594,214,53299
1747907048669.594,214,53293
1747907048670.594,214,53285
1747907048671.594,214,53284
1747907048672.594,214,53289
1747907048673.594,214,53290
1747907048674.594,215,53288
1747907048675.594,215,53305
1747907048676.594,215,53319
1747907048677.594,215,53337
1747907048678.594,215,53363
1747907048679.594,215,53379
1747907048680.594,215,53412
1747907048681.594,215,53434
1747907048682.469,215,53456
1747907048683.469,215,53479
1747907048684.469,215,53506
1747907048685.469,216,53533
1747907048686.469,216,53562
1747907048687.469,216,53598
1747907048688.469,216,53637
1747907048689.469,216,53672
1747907048690.469,216,53734
1747907048691.469,216,53792
1747907048692.469,216,53835
1747907048693.469,216,53865
1747907048694.469,216,53883
1747907048695.469,216,53890
1747907048696.469,217,53906
1747907048697.469,217,53912
1747907048698.375,217,53898
1747907048699.375,217,53877
1747907048700.375,217,53841
1747907048701.375,217,53796
1747907048702.375,217,53765
1747907048703.375,217,53732
1747907048704.375,217,53689
1747907048705.375,217,53640
1747907048706.375,217,53590
1747907048707.375,218,53546
1747907048708.375,218,53507
1747907048709.375,218,53463
1747907048710.375,218,53417
1747907048711.375,218,53358
1747907048712.375,218,53286
1747907048713.375,218,53199
1747907048714.188,218,53101
1747907048715.187,218,52982
1747907048716.188,218,52874
1747907048717.187,218,52760
1747907048718.188,219,52657
1747907048719.187,219,52558
1747907048720.188,219,52469
1747907048721.187,219,52398
1747907048722.188,219,52347
1747907048723.187,219,52312
1747907048724.188,219,52279
1747907048725.188,219,52256
1747907048726.187,219,52238
1747907048727.188,219,52230
1747907048728.187,219,52231
1747907048729.188,220,52227
1747907048730.094,220,52222
1747907048731.094,220,52197
1747907048732.094,220,52174
1747907048733.094,220,52151
1747907048734.094,220,52140
1747907048735.094,220,52135
1747907048736.094,220,52134
1747907048737.094,220,52136
1747907048738.094,220,52153
1747907048739.094,220,52174
1747907048740.094,221,52208
1747907048741.094,221,52240
1747907048742.094,221,52256
1747907048743.094,221,52261
1747907048744.094,221,52248
1747907048745.094,221,52227
1747907048746.0,221,52194
1747907048747.0,221,52150
1747907048748.0,221,52108
1747907048749.0,221,52065
1747907048750.0,221,52026
1747907048751.0,222,51994
1747907048752.0,222,51966
1747907048753.0,222,51946
1747907048754.0,222,51945
1747907048755.0,222,51954
1747907048756.0,222,51966
1747907048757.0,222,51977
1747907048758.0,222,51978
1747907048759.0,222,51984
1747907048760.0,222,51989
1747907048761.0,222,51988
1747907048761.875,223,51974
1747907048762.875,223,51944
1747907048763.875,223,51905
1747907048764.875,223,51877
1747907048765.875,223,51841
1747907048766.875,223,51812
1747907048767.875,223,51788
1747907048768.875,223,51764
1747907048769.875,223,51761
1747907048770.875,223,51774
1747907048771.875,223,51789
1747907048772.875,224,51796
1747907048773.875,224,51799
1747907048774.875,224,51790
1747907048775.875,224,51774
1747907048776.875,224,51759
1747907048777.75,224,51737
1747907048778.75,224,51710
1747907048779.75,224,51688
1747907048780.75,224,51675
1747907048781.75,224,51667
1747907048782.75,224,51671
1747907048783.75,225,51669
1747907048784.75,225,51660
1747907048785.75,225,51659
1747907048786.75,225,51659
1747907048787.75,225,51662
1747907048788.75,225,51659
1747907048789.75,225,51654
1747907048790.75,225,51648
1747907048791.75,225,51632
1747907048792.75,225,51625
1747907048793.594,225,51599
1747907048794.594,226,51565
1747907048795.594,226,51527
1747907048796.594,226,51508
1747907048797.594,226,51497
1747907048798.594,226,51490
1747907048799.594,226,51484
1747907048800.594,226,51486
1747907048801.594,226,51486
1747907048802.594,226,51490
1747907048803.594,226,51500
1747907048804.594,226,51499
1747907048805.594,227,51492
1747907048806.594,227,51474
1747907048807.594,227,51461
1747907048808.594,227,51445
1747907048809.5,227,51422
1747907048810.5,227,51386
1747907048811.5,227,51353
1747907048812.5,227,51321
1747907048813.5,227,51296
1747907048814.5,227,51280
1747907048815.5,227,51291
1747907048816.5,228,51306
1747907048817.5,228,51329
1747907048818.5,228,51357
1747907048819.5,228,51376
1747907048820.5,228,51385
1747907048821.5,228,51392
1747907048822.5,228,51392
1747907048823.5,228,51386
1747907048824.5,228,51374
1747907048825.375,228,51328
1747907048826.375,228,51278
1747907048827.375,229,51228
1747907048828.375,229,51190
1747907048829.375,229,51153
1747907048830.375,229,51133
1747907048831.375,229,51119
1747907048832.375,229,51104
1747907048833.375,229,51108
1747907048834.375,229,51127
1747907048835.375,229,51155
1747907048836.375,229,51186
1747907048837.375,229,51206
1747907048838.375,230,51217
1747907048839.375,230,51216
1747907048840.375,230,51209
1747907048841.281,230,51193
1747907048842.281,230,51174
1747907048843.281,230,51138
1747907048844.281,230,51104
1747907048845.281,230,51079
1747907048846.281,230,51063
1747907048847.281,230,51046
1747907048848.281,230,51034
1747907048849.281,231,51034
1747907048850.281,231,51052
1747907048851.281,231,51075
1747907048852.281,231,51086
1747907048853.281,231,51098
1747907048854.281,231,51110
1747907048855.281,231,51117
1747907048856.281,231,51117
1747907048857.156,231,51094
1747907048858.156,231,51053
1747907048859.156,231,51015
1747907048860.156,232,50990
1747907048861.156,232,50958
1747907048862.156,232,50936
1747907048863.156,232,50905
1747907048864.156,232,50879
1747907048865.156,232,50872
1747907048866.156,232,50887
1747907048867.156,232,50902
1747907048868.156,232,50920
1747907048869.1558,232,50926
1747907048870.156,232,50930
1747907048871.156,233,50927
1747907048872.156,233,50929
1747907048873.0,233,50925
1747907048874.0,233,50910
1747907048875.0,233,50889
1747907048876.0,233,50870
1747907048877.0,233,50852
1747907048878.0,233,50832
1747907048879.0,233,50807
1747907048880.0,233,50787
1747907048881.0,233,50778
1747907048882.0,234,50783
1747907048883.0,234,50797
1747907048884.0,234,50804
1747907048885.0,234,50807
1747907048886.0,234,50808
1747907048887.0,234,50808
1747907048888.0,234,50799
1747907048888.906,234,50781
1747907048889.906,234,50751
1747907048890.906,234,50730
1747907048891.906,234,50718
1747907048892.906,235,50707
1747907048893.906,235,50704
1747907048894.906,235,50692
1747907048895.906,235,50677
1747907048896.906,235,50680
1747907048897.906,235,50688
1747907048898.906,235,50693
1747907048899.906,235,50689
1747907048900.906,235,50665
1747907048901.906,235,50631
1747907048902.906,235,50598
1747907048903.906,236,50569
1747907048904.781,236,50534
1747907048905.781,236,50503
1747907048906.781,236,50474
1747907048907.781,236,50454
1747907048908.781,236,50429
1747907048909.781,236,50415
1747907048910.781,236,50410
1747907048911.781,236,50412
1747907048912.781,236,50437
1747907048913.781,236,50465
1747907048914.781,237,50490
1747907048915.781,237,50498
1747907048916.781,237,50494
1747907048917.781,237,50479
1747907048918.781,237,50453
1747907048919.781,237,50418
1747907048920.656,237,50359
1747907048921.656,237,50295
1747907048922.656,237,50238
1747907048923.656,237,50192
1747907048924.656,237,50155
1747907048925.656,238,50131
1747907048926.656,238,50113
1747907048927.656,238,50101
1747907048928.656,238,50107
1747907048929.656,238,50124
1747907048930.656,238,50142
1747907048931.6558,238,50154
1747907048932.656,238,50163
1747907048933.656,238,50167
1747907048934.656,238,50159
1747907048935.656,238,50146
1747907048936.562,239,50115
1747907048937.563,239,50078
1747907048938.562,239,50024
1747907048939.563,239,49971
1747907048940.562,239,49928
1747907048941.562,239,49882
1747907048942.563,239,49859
1747907048943.562,239,49838
1747907048944.563,239,49836
1747907048945.5618,239,49840
1747907048946.563,239,49854
1747907048947.562,240,49865
1747907048948.563,240,49884
1747907048949.562,240,49888
1747907048950.563,240,49882
1747907048951.562,240,49868
1747907048952.437,240,49836
1747907048953.438,240,49789
1747907048954.437,240,49737
1747907048955.438,240,49693
1747907048956.437,240,49646
1747907048957.438,240,49601
1747907048958.437,241,49556
1747907048959.438,241,49519
1747907048960.437,241,49502
1747907048961.438,241,49504
1747907048962.437,241,49504
1747907048963.438,241,49500
1747907048964.437,241,49495
1747907048965.438,241,49486
1747907048966.437,241,49499
1747907048967.438,241,49513
1747907048968.313,241,49512
1747907048969.312,242,49494
1747907048970.313,242,49471
1747907048971.312,242,49442
1747907048972.313,242,49412
1747907048973.312,242,49387
1747907048974.313,242,49362
1747907048975.312,242,49335
1747907048976.3132,242,49306
1747907048977.312,242,49286
1747907048978.313,242,49268
1747907048979.312,242,49257
1747907048980.313,243,49253
1747907048981.313,243,49241
1747907048982.312,243,49238
1747907048983.313,243,49230
1747907048984.1868,243,49213
1747907048985.188,243,49183
1747907048986.187,243,49161
1747907048987.188,243,49150
1747907048988.187,243,49150
1747907048989.188,243,49137
1747907048990.187,243,49124
1747907048991.188,244,49108
1747907048992.188,244,49108
1747907048993.187,244,49110
1747907048994.188,244,49106
1747907048995.187,244,49102
1747907048996.188,244,49090
1747907048997.187,244,49072
1747907048998.188,244,49056
1747907048999.187,244,49041
1747907049000.094,244,49007
1747907049001.094,244,48966
1747907049002.094,245,48935
1747907049003.094,245,48910
1747907049004.094,245,48896
1747907049005.094,245,48897
1747907049006.094,245,48908
1747907049007.094,245,48922
1747907049008.094,245,48945
1747907049009.094,245,48962
1747907049010.094,245,48976
1747907049011.094,245,48982
1747907049012.094,245,48974
1747907049013.094,246,48966
1747907049014.094,246,48945
1747907049015.094,246,48914
1747907049016.031,246,48879
1747907049017.031,246,48840
1747907049018.0308,246,48798
1747907049019.031,246,48766
1747907049020.031,246,48735
1747907049021.031,246,48707
1747907049022.031,246,48681
1747907049023.031,246,48671
1747907049024.031,247,48690
1747907049025.031,247,48736
1747907049026.031,247,48778
1747907049027.031,247,48821
1747907049028.031,247,48848
1747907049029.031,247,48857
1747907049030.031,247,48855
1747907049031.031,247,48842
1747907049031.875,247,48818
1747907049032.875,247,48784
1747907049033.875,247,48732
1747907049034.875,248,48686
1747907049035.875,248,48651
1747907049036.875,248,48624
1747907049037.875,248,48606
1747907049038.875,248,48586
1747907049039.875,248,48582
1747907049040.875,248,48584
1747907049041.875,248,48590
1747907049042.875,248,48600
1747907049043.875,248,48615
1747907049044.875,248,48622
1747907049045.875,249,48626
1747907049046.875,249,48624
1747907049047.75,249,48607
1747907049048.75,249,48577
1747907049049.75,249,48551
1747907049050.75,249,48527
1747907049051.75,249,48492
1747907049052.75,249,48465
1747907049053.75,249,48444
1747907049054.75,249,48437
1747907049055.75,249,48446
1747907049056.75,250,48462
1747907049057.75,250,48471
1747907049058.75,250,48482
1747907049059.75,250,48484
1747907049060.75,250,48485
1747907049061.75,250,48489
1747907049062.75,250,48492
1747907049063.625,250,48472
1747907049064.625,250,48443
1747907049065.625,250,48418
1747907049066.625,250,48394
1747907049067.625,251,48374
1747907049068.625,251,48364
1747907049069.625,251,48355
1747907049070.625,251,48345
1747907049071.625,251,48330
1747907049072.625,251,48325
1747907049073.625,251,48320
1747907049074.625,251,48315
1747907049075.625,251,48304
1747907049076.625,251,48298
1747907049077.625,251,48284
1747907049078.625,252,48279
1747907049079.531,252,48262
1747907049080.5308,252,48241
1747907049081.531,252,48234
1747907049082.531,252,48224
1747907049083.531,252,48220
1747907049084.531,252,48211
1747907049085.531,252,48218
1747907049086.531,252,48218
1747907049087.531,252,48223
1747907049088.531,252,48231
1747907049089.531,253,48232
1747907049090.531,253,48218
1747907049091.531,253,48196
1747907049092.531,253,48172
1747907049093.531,253,48145
1747907049094.531,253,48112
1747907049095.406,253,48070
1747907049096.406,253,48022
1747907049097.406,253,47983
1747907049098.406,253,47943
1747907049099.406,253,47932
1747907049100.406,254,47919
1747907049101.406,254,47922
1747907049102.406,254,47922
1747907049103.406,254,47930
1747907049104.406,254,47948
1747907049105.406,254,47964
1747907049106.406,254,47988
1747907049107.406,254,47997
1747907049108.406,254,47988
1747907049109.406,254,47962
1747907049110.406,254,47933
1747907049111.281,255,47896
1747907049112.281,255,47850
1747907049113.281,255,47812
1747907049114.281,255,47776
1747907049115.281,255,47760
1747907049116.281,255,47754
1747907049117.281,255,47743
1747907049118.281,255,47750
1747907049119.281,255,47765
1747907049120.281,255,47783
1747907049121.281,255,47792
1747907049122.281,256,47794
1747907049123.281,256,47790
1747907049124.281,256,47786
1747907049125.281,256,47773
1747907049126.281,256,47763
1747907049127.125,256,47726
1747907049128.125,256,47675
1747907049129.125,256,47631
1747907049130.125,256,47582
1747907049131.125,256,47550
1747907049132.125,256,47521
1747907049133.125,257,47508
1747907049134.125,257,47498
1747907049135.125,257,47504
1747907049136.125,257,47512
1747907049137.125,257,47532
1747907049138.125,257,47549
1747907049139.125,257,47560
1747907049140.125,257,47561
1747907049141.125,257,47564
1747907049142.125,257,47564
1747907049143.0308,257,47548
1747907049144.031,258,47521
1747907049145.031,258,47487
1747907049146.031,258,47450
1747907049147.031,258,47404
1747907049148.031,258,47366
1747907049149.031,258,47330
1747907049150.031,258,47313
1747907049151.031,258,47305
1747907049152.031,258,47322
1747907049153.031,258,47336
1747907049154.031,258,47354
1747907049155.031,259,47360
1747907049156.031,259,47371
1747907049157.031,259,47377
1747907049158.031,259,47378
1747907049158.937,259,47360
1747907049159.938,259,47330
1747907049160.937,259,47302
1747907049161.938,259,47277
1747907049162.937,259,47248
1747907049163.938,259,47233
1747907049164.937,259,47215
1747907049165.938,260,47193
1747907049166.937,260,47182
1747907049167.938,260,47176
1747907049168.937,260,47177
1747907049169.938,260,47178
1747907049170.937,260,47174
1747907049171.938,260,47165
1747907049172.937,260,47150
1747907049173.938,260,47142
1747907049174.813,260,47129
1747907049175.812,260,47105
1747907049176.813,261,47085
1747907049177.812,261,47063
1747907049178.813,261,47036
1747907049179.812,261,47016
1747907049180.813,261,47004
1747907049181.812,261,46997
1747907049182.813,261,47000
1747907049183.812,261,47013
1747907049184.813,261,47021
1747907049185.812,261,47022
1747907049186.812,261,47028
1747907049187.813,262,47022
1747907049188.812,262,47016
1747907049189.813,262,47009
1747907049190.687,262,46987
1747907049191.688,262,46951
1747907049192.687,262,46911
1747907049193.688,262,46882
1747907049194.687,262,46857
1747907049195.688,262,46845
1747907049196.687,262,46833
1747907049197.687,262,46820
1747907049198.688,263,46831
1747907049199.687,263,46849
1747907049200.688,263,46862
1747907049201.687,263,46872
1747907049202.688,263,46870
1747907049203.687,263,46854
1747907049204.688,263,46842
1747907049205.687,263,46825
1747907049206.563,263,46796
1747907049207.562,263,46764
1747907049208.563,263,46724
1747907049209.563,264,46688
1747907049210.562,264,46665
1747907049211.563,264,46648
1747907049212.562,264,46651
1747907049213.563,264,46660
1747907049214.562,264,46675
1747907049215.563,264,46696
1747907049216.562,264,46712
1747907049217.563,264,46727
1747907049218.5618,264,46730
1747907049219.563,264,46722
1747907049220.562,265,46714
1747907049221.563,265,46694
1747907049222.438,265,46655
1747907049223.437,265,46602
1747907049224.438,265,46557
1747907049225.437,265,46524
1747907049226.438,265,46497
1747907049227.437,265,46476
1747907049228.438,265,46467
1747907049229.437,265,46461
1747907049230.438,265,46470
1747907049231.437,266,46494
1747907049232.438,266,46517
1747907049233.437,266,46537
1747907049234.438,266,46540
1747907049235.437,266,46550
1747907049236.438,266,46552
1747907049237.437,266,46551
1747907049238.344,266,46534
1747907049239.344,266,46507
1747907049240.344,266,46475
1747907049241.344,266,46442
1747907049242.344,267,46418
1747907049243.344,267,46408
1747907049244.344,267,46402
1747907049245.344,267,46402
1747907049246.344,267,46404
1747907049247.344,267,46417
1747907049248.344,267,46424
1747907049249.344,267,46429
1747907049250.344,267,46434
1747907049251.344,267,46443
1747907049252.344,267,46443
1747907049253.344,268,46437
1747907049254.25,268,46415
1747907049255.25,268,46386
1747907049256.25,268,46354
1747907049257.25,268,46316
1747907049258.25,268,46282
1747907049259.25,268,46248
1747907049260.25,268,46214
1747907049261.25,268,46187
1747907049262.25,268,46175
1747907049263.25,268,46185
1747907049264.25,269,46204
1747907049265.25,269,46223
1747907049266.25,269,46234
1747907049267.25,269,46235
1747907049268.25,269,46228
1747907049269.25,269,46227
1747907049270.094,269,46221
1747907049271.094,269,46203
1747907049272.094,269,46188
1747907049273.094,269,46163
1747907049274.094,269,46147
1747907049275.094,270,46129
1747907049276.094,270,46109
1747907049277.094,270,46091
1747907049278.094,270,46082
1747907049279.094,270,46079
1747907049280.094,270,46081
1747907049281.094,270,46083
1747907049282.094,270,46083
1747907049283.094,270,46069
1747907049284.094,270,46062
1747907049285.094,270,46048
1747907049285.969,271,46021
1747907049286.969,271,45991
1747907049287.969,271,45957
1747907049288.969,271,45938
1747907049289.969,271,45926
1747907049290.969,271,45914
1747907049291.969,271,45900
1747907049292.969,271,45885
1747907049293.969,271,45885
1747907049294.969,271,45890
1747907049295.969,271,45897
1747907049296.969,272,45888
1747907049297.969,272,45869
1747907049298.969,272,45850
1747907049299.969,272,45820
1747907049300.969,272,45794
1747907049301.844,272,45765
1747907049302.844,272,45726
1747907049303.844,272,45695
1747907049304.844,272,45673
1747907049305.844,272,45653
1747907049306.844,272,45633
1747907049307.844,273,45630
1747907049308.844,273,45637
1747907049309.844,273,45653
1747907049310.844,273,45675
1747907049311.844,273,45687
1747907049312.844,273,45697
1747907049313.844,273,45703
1747907049314.844,273,45700
1747907049315.844,273,45690
1747907049316.844,273,45670
1747907049317.75,273,45639
1747907049318.75,274,45604
1747907049319.75,274,45569
1747907049320.75,274,45531
1747907049321.75,274,45506
1747907049322.75,274,45490
1747907049323.75,274,45478
1747907049324.75,274,45481
1747907049325.75,274,45491
1747907049326.75,274,45530
1747907049327.75,274,45566
1747907049328.75,274,45594
1747907049329.75,275,45611
1747907049330.75,275,45610
1747907049331.75,275,45591
1747907049332.75,275,45574
1747907049333.656,275,45545
1747907049334.656,275,45504
1747907049335.656,275,45466
1747907049336.656,275,45428
1747907049337.656,275,45396
1747907049338.656,275,45379
1747907049339.656,275,45372
1747907049340.656,276,45367
1747907049341.656,276,45373
1747907049342.656,276,45387
1747907049343.656,276,45410
1747907049344.656,276,45433
1747907049345.656,276,45463
1747907049346.656,276,45492
1747907049347.656,276,45517
1747907049348.656,276,45530
1747907049349.5,276,45518
1747907049350.5,276,45494
1747907049351.5,277,45462
1747907049352.5,277,45436
1747907049353.5,277,45399
1747907049354.5,277,45366
1747907049355.5,277,45327
1747907049356.5,277,45285
1747907049357.5,277,45264
1747907049358.5,277,45265
1747907049359.5,277,45282
1747907049360.5,277,45301
1747907049361.5,277,45319
1747907049362.5,278,45338
1747907049363.5,278,45364
1747907049364.5,278,45395
1747907049365.375,278,45404
1747907049366.375,278,45393
1747907049367.375,278,45374
1747907049368.375,278,45360
1747907049369.375,278,45353
1747907049370.375,278,45358
1747907049371.375,278,45368
1747907049372.375,278,45389
1747907049373.375,279,45409
1747907049374.375,279,45438
1747907049375.375,279,45477
1747907049376.375,279,45523
1747907049377.375,279,45567
1747907049378.375,279,45609
1747907049379.375,279,45640
1747907049380.375,279,45674
1747907049381.281,279,45701
1747907049382.281,279,45718
1747907049383.281,279,45753
1747907049384.281,280,45801
1747907049385.281,280,45845
1747907049386.281,280,45895
1747907049387.281,280,45939
1747907049388.281,280,45982
1747907049389.281,280,46028
1747907049390.281,280,46076
1747907049391.281,280,46115
1747907049392.281,280,46137
1747907049393.281,280,46137
1747907049394.281,280,46130
1747907049395.281,281,46109
1747907049396.281,281,46076
1747907049397.156,281,46019
1747907049398.156,281,45950
1747907049399.156,281,45877
1747907049400.156,281,45805
1747907049401.156,281,45751
1747907049402.156,281,45696
1747907049403.156,281,45655
1747907049404.156,281,45617
1747907049405.156,281,45585
1747907049406.156,282,45552
1747907049407.156,282,45517
1747907049408.156,282,45469
1747907049409.156,282,45402
1747907049410.156,282,45319
1747907049411.156,282,45224
1747907049412.156,282,45111
1747907049413.063,282,44979
1747907049414.062,282,44838
1747907049415.062,282,44714
1747907049416.063,282,44604
1747907049417.062,283,44515
1747907049418.063,283,44442
1747907049419.062,283,44395
1747907049420.063,283,44369
1747907049421.062,283,44381
1747907049422.0632,283,44417
1747907049423.062,283,44464
1747907049424.063,283,44511
1747907049425.062,283,44554
1747907049426.063,283,44587
1747907049427.062,283,44613
1747907049428.063,284,44624
1747907049428.938,284,44618
1747907049429.9368,284,44593
1747907049430.938,284,44546
1747907049431.937,284,44510
1747907049432.938,284,44481
1747907049433.937,284,44459
1747907049434.938,284,44440
1747907049435.937,284,44424
1747907049436.938,284,44432
1747907049437.937,284,44472
1747907049438.938,285,44509
1747907049439.937,285,44545
1747907049440.938,285,44571
1747907049441.937,285,44590
1747907049442.938,285,44602
1747907049443.938,285,44608
1747907049444.812,285,44598
1747907049445.813,285,44575
1747907049446.812,285,44541
1747907049447.813,285,44512
1747907049448.812,285,44472
1747907049449.813,286,44430
1747907049450.812,286,44393
1747907049451.813,286,44370
1747907049452.812,286,44356
1747907049453.813,286,44357
1747907049454.813,286,44368
1747907049455.812,286,44372
1747907049456.813,286,44376
1747907049457.812,286,44376
1747907049458.813,286,44388
1747907049459.812,286,44396
1747907049460.719,287,44390
1747907049461.719,287,44376
1747907049462.719,287,44371
1747907049463.719,287,44349
1747907049464.719,287,44335
1747907049465.719,287,44315
1747907049466.719,287,44297
1747907049467.719,287,44276
1747907049468.719,287,44260
1747907049469.719,287,44254
1747907049470.719,287,44252
1747907049471.719,288,44253
1747907049472.719,288,44251
1747907049473.719,288,44245
1747907049474.719,288,44242
1747907049475.719,288,44230
1747907049476.594,288,44202
1747907049477.594,288,44177
1747907049478.594,288,44164
1747907049479.594,288,44150
1747907049480.594,288,44147
1747907049481.594,288,44147
1747907049482.594,289,44148
1747907049483.594,289,44151
1747907049484.594,289,44161
1747907049485.594,289,44190
1747907049486.594,289,44206
1747907049487.594,289,44212
1747907049488.594,289,44212
1747907049489.594,289,44203
1747907049490.594,289,44188
1747907049491.594,289,44173
1747907049492.469,289,44144
1747907049493.469,290,44108
1747907049494.469,290,44072
1747907049495.469,290,44041
1747907049496.469,290,44023
1747907049497.469,290,44017
1747907049498.469,290,44013
1747907049499.469,290,44022
1747907049500.469,290,44039
1747907049501.469,290,44068
1747907049502.469,290,44088
1747907049503.469,290,44108
1747907049504.469,291,44114
1747907049505.469,291,44100
1747907049506.469,291,44081
1747907049507.469,291,44054
1747907049508.344,291,44016
1747907049509.344,291,43985
1747907049510.344,291,43952
1747907049511.344,291,43929
1747907049512.344,291,43926
1747907049513.344,291,43935
1747907049514.344,291,43940
1747907049515.344,292,43962
1747907049516.344,292,43990
1747907049517.344,292,44024
1747907049518.344,292,44057
1747907049519.344,292,44077
1747907049520.344,292,44082
1747907049521.344,292,44083
1747907049522.344,292,44076
1747907049523.344,292,44072
1747907049524.219,292,44048
1747907049525.219,292,43993
1747907049526.219,293,43935
1747907049527.219,293,43890
1747907049528.219,293,43868
1747907049529.219,293,43848
1747907049530.219,293,43840
1747907049531.219,293,43830
1747907049532.219,293,43843
1747907049533.219,293,43863
1747907049534.219,293,43893
1747907049535.219,293,43929
1747907049536.219,293,43950
1747907049537.219,294,43967
1747907049538.219,294,43978
1747907049539.219,294,43981
1747907049540.094,294,43971
1747907049541.094,294,43942
1747907049542.094,294,43918
1747907049543.094,294,43891
1747907049544.094,294,43852
1747907049545.094,294,43816
1747907049546.094,294,43787
1747907049547.094,294,43777
1747907049548.094,295,43776
1747907049549.094,295,43792
1747907049550.094,295,43813
1747907049551.094,295,43839
1747907049552.094,295,43854
1747907049553.094,295,43877
1747907049554.094,295,43897
1747907049555.094,295,43906
1747907049556.0,295,43900
1747907049557.0,295,43879
1747907049558.0,295,43855
1747907049559.0,296,43829
1747907049560.0,296,43798
1747907049561.0,296,43773
1747907049562.0,296,43763
1747907049563.0,296,43754
1747907049564.0,296,43763
1747907049565.0,296,43784
1747907049566.0,296,43817
1747907049567.0,296,43836
1747907049568.0,296,43843
1747907049569.0,296,43844
1747907049570.0,297,43841
1747907049571.0,297,43843
1747907049571.875,297,43827
1747907049572.875,297,43814
1747907049573.875,297,43801
1747907049574.875,297,43794
1747907049575.875,297,43785
1747907049576.875,297,43773
1747907049577.875,297,43770
1747907049578.875,297,43771
1747907049579.875,297,43783
1747907049580.875,298,43799
1747907049581.875,298,43804
1747907049582.875,298,43808
1747907049583.875,298,43797
1747907049584.875,298,43780
1747907049585.875,298,43769
1747907049586.875,298,43756
1747907049587.75,298,43732
1747907049588.75,298,43704
1747907049589.75,298,43679
1747907049590.75,298,43664
1747907049591.75,299,43654
1747907049592.75,299,43654
1747907049593.75,299,43654
1747907049594.75,299,43660
1747907049595.75,299,43674
1747907049596.75,299,43689
1747907049597.75,299,43703
1747907049598.75,299,43710
1747907049599.75,299,43710
1747907049600.75,299,43700
1747907049601.75,299,43677
1747907049602.75,300,43662
1747907049603.625,300,43633
1747907049604.625,300,43598
1747907049605.625,300,43556
1747907049606.625,300,43512
1747907049607.625,300,43476
1747907049608.625,300,43457
1747907049609.625,300,43443
1747907049610.625,300,43441
1747907049611.625,300,43455
1747907049612.625,300,43469
1747907049613.625,301,43485
1747907049614.625,301,43493
1747907049615.625,301,43503
1747907049616.625,301,43497
1747907049617.625,301,43480
1747907049618.625,301,43457
1747907049619.531,301,43411
1747907049620.531,301,43359
1747907049621.531,301,43321
1747907049622.531,301,43286
1747907049623.531,301,43264
1747907049624.531,302,43251
1747907049625.531,302,43257
1747907049626.531,302,43259
1747907049627.531,302,43270
1747907049628.531,302,43286
1747907049629.531,302,43308
1747907049630.531,302,43318
1747907049631.531,302,43326
1747907049632.531,302,43318
1747907049633.531,302,43313
1747907049634.531,302,43303
1747907049635.406,303,43282
1747907049636.406,303,43240
1747907049637.406,303,43204
1747907049638.406,303,43157
1747907049639.406,303,43117
1747907049640.406,303,43079
1747907049641.406,303,43048
1747907049642.406,303,43025
1747907049643.406,303,43029
1747907049644.406,303,43043
1747907049645.406,303,43063
1747907049646.406,304,43095
1747907049647.406,304,43121
1747907049648.406,304,43154
1747907049649.406,304,43191
1747907049650.4058,304,43217
1747907049651.281,304,43233
1747907049652.281,304,43241
1747907049653.281,304,43246
1747907049654.281,304,43247
1747907049655.281,304,43243
1747907049656.281,304,43233
1747907049657.281,305,43216
1747907049658.281,305,43184
1747907049659.281,305,43161
1747907049660.281,305,43147
1747907049661.281,305,43138
1747907049662.281,305,43132
1747907049663.281,305,43119
1747907049664.281,305,43101
1747907049665.281,305,43090
1747907049666.281,305,43069
1747907049667.156,305,43054
1747907049668.156,306,43019
1747907049669.156,306,42987
1747907049670.156,306,42961
1747907049671.156,306,42932
1747907049672.156,306,42909
1747907049673.156,306,42886
1747907049674.156,306,42871
1747907049675.156,306,42862
1747907049676.156,306,42851
1747907049677.156,306,42844
1747907049678.156,306,42829
1747907049679.156,307,42816
1747907049680.156,307,42805
1747907049681.156,307,42797
1747907049682.156,307,42793
1747907049683.031,307,42776
1747907049684.031,307,42755
1747907049685.031,307,42731
1747907049686.031,307,42728
1747907049687.031,307,42720
1747907049688.031,307,42716
1747907049689.031,307,42710
1747907049690.031,308,42700
1747907049691.031,308,42699
1747907049692.031,308,42702
1747907049693.031,308,42714
1747907049694.031,308,42719
1747907049695.031,308,42714
1747907049696.031,308,42693
1747907049697.031,308,42667
1747907049698.031,308,42650
1747907049698.937,308,42618
1747907049699.938,308,42587
1747907049700.937,309,42552
1747907049701.938,309,42530
1747907049702.9368,309,42510
1747907049703.938,309,42500
1747907049704.937,309,42501
1747907049705.938,309,42506
1747907049706.937,309,42528
1747907049707.938,309,42567
1747907049708.937,309,42597
1747907049709.938,309,42616
1747907049710.938,309,42625
1747907049711.937,310,42619
1747907049712.938,310,42606
1747907049713.937,310,42584
1747907049714.844,310,42538
1747907049715.844,310,42490
1747907049716.844,310,42441
1747907049717.844,310,42401
1747907049718.844,310,42371
1747907049719.844,310,42350
1747907049720.844,310,42338
1747907049721.844,310,42339
1747907049722.844,311,42365
1747907049723.844,311,42409
1747907049724.844,311,42454
1747907049725.844,311,42486
1747907049726.844,311,42511
1747907049727.844,311,42524
1747907049728.844,311,42535
1747907049729.844,311,42531
1747907049730.719,311,42509
1747907049731.719,311,42468
1747907049732.719,311,42425
1747907049733.719,312,42379
1747907049734.719,312,42340
1747907049735.719,312,42310
1747907049736.719,312,42284
1747907049737.719,312,42266
1747907049738.719,312,42262
1747907049739.719,312,42273
1747907049740.719,312,42286
1747907049741.719,312,42309
1747907049742.719,312,42332
1747907049743.719,312,42357
1747907049744.719,313,42379
1747907049745.719,313,42388
1747907049746.594,313,42383
1747907049747.5942,313,42371
1747907049748.594,313,42344
1747907049749.594,313,42323
1747907049750.594,313,42303
1747907049751.594,313,42281
1747907049752.594,313,42260
1747907049753.594,313,42238
1747907049754.594,313,42232
1747907049755.594,314,42236
1747907049756.594,314,42242
1747907049757.594,314,42242
1747907049758.594,314,42240
1747907049759.594,314,42242
1747907049760.594,314,42249
1747907049761.594,314,42261
1747907049762.469,314,42262
1747907049763.469,314,42256
1747907049764.469,314,42243
1747907049765.469,314,42225
1747907049766.469,315,42204
1747907049767.469,315,42186
1747907049768.469,315,42167
1747907049769.469,315,42145
1747907049770.469,315,42136
1747907049771.4692,315,42132
1747907049772.469,315,42134
1747907049773.469,315,42129
1747907049774.469,315,42134
1747907049775.469,315,42143
1747907049776.469,315,42143
1747907049777.469,316,42137
1747907049778.375,316,42116
1747907049779.375,316,42095
1747907049780.375,316,42081
1747907049781.375,316,42077
1747907049782.375,316,42089
1747907049783.375,316,42105
1747907049784.375,316,42119
1747907049785.375,316,42126
1747907049786.375,316,42130
1747907049787.375,316,42143
1747907049788.375,317,42152
1747907049789.375,317,42151
1747907049790.375,317,42136
1747907049791.375,317,42113
1747907049792.375,317,42096
1747907049793.375,317,42078
1747907049794.25,317,42061
1747907049795.25,317,42027
1747907049796.25,317,42007
1747907049797.25,317,41994
1747907049798.25,317,41989
1747907049799.25,318,41994
1747907049800.25,318,42007
1747907049801.25,318,42011
1747907049802.25,318,42029
1747907049803.25,318,42051
1747907049804.25,318,42061
1747907049805.25,318,42069
1747907049806.25,318,42072
1747907049807.25,318,42073
1747907049808.25,318,42065
1747907049809.25,318,42045
1747907049810.125,319,42015
1747907049811.125,319,41978
1747907049812.125,319,41943
1747907049813.125,319,41918
1747907049814.125,319,41902
1747907049815.125,319,41894
1747907049816.125,319,41896
1747907049817.125,319,41894
1747907049818.125,319,41917
1747907049819.125,319,41948
1747907049820.125,319,41983
1747907049821.125,320,42013
1747907049822.125,320,42031
1747907049823.125,320,42035
1747907049824.125,320,42037
1747907049825.125,320,42037
1747907049826.125,320,42021
1747907049827.125,320,41998
1747907049828.125,320,41967
1747907049829.125,320,41933
1747907049830.125,320,41900
1747907049831.125,320,41876
1747907049832.125,321,41855
1747907049833.125,321,41840
1747907049834.125,321,41843
1747907049835.125,321,41856
1747907049836.125,321,41876
1747907049837.125,321,41907
1747907049838.125,321,41929
1747907049839.125,321,41950
1747907049840.125,321,41964
1747907049841.125,321,41975
1747907049841.875,321,41962
1747907049842.875,322,41944
1747907049843.875,322,41919
1747907049844.875,322,41894
1747907049845.875,322,41866
1747907049846.875,322,41835
1747907049847.875,322,41809
1747907049848.875,322,41788
1747907049849.875,322,41784
1747907049850.875,322,41792
1747907049851.875,322,41801
1747907049852.875,322,41814
1747907049853.875,323,41823
1747907049854.875,323,41825
1747907049855.875,323,41835
1747907049856.875,323,41851
1747907049857.781,323,41850
1747907049858.781,323,41838
1747907049859.781,323,41815
1747907049860.781,323,41795
1747907049861.7808,323,41772
1747907049862.781,323,41757
1747907049863.781,323,41741
1747907049864.781,324,41738
1747907049865.781,324,41733
1747907049866.781,324,41740
1747907049867.781,324,41746
1747907049868.781,324,41752
1747907049869.781,324,41750
1747907049870.781,324,41747
1747907049871.781,324,41741
1747907049872.781,324,41746
1747907049873.656,324,41738
1747907049874.656,324,41729
1747907049875.656,325,41730
1747907049876.656,325,41729
1747907049877.656,325,41725
1747907049878.656,325,41717
1747907049879.656,325,41706
1747907049880.656,325,41688
1747907049881.656,325,41679
1747907049882.656,325,41679
1747907049883.656,325,41684
1747907049884.656,325,41679
1747907049885.656,325,41668
1747907049886.656,326,41659
1747907049887.656,326,41646
1747907049888.656,326,41637
1747907049889.594,326,41614
1747907049890.594,326,41591
1747907049891.594,326,41568
1747907049892.594,326,41549
1747907049893.594,326,41544
1747907049894.594,326,41554
1747907049895.594,326,41572
1747907049896.594,326,41588
1747907049897.594,327,41612
1747907049898.594,327,41643
1747907049899.594,327,41663
1747907049900.594,327,41672
1747907049901.594,327,41688
1747907049902.594,327,41695
1747907049903.594,327,41693
1747907049904.594,327,41674
1747907049905.437,327,41637
1747907049906.4382,327,41586
1747907049907.437,327,41536
1747907049908.438,328,41494
1747907049909.437,328,41465
1747907049910.438,328,41444
1747907049911.437,328,41422
1747907049912.438,328,41420
1747907049913.437,328,41446
1747907049914.438,328,41478
1747907049915.437,328,41515
1747907049916.437,328,41541
1747907049917.438,328,41559
1747907049918.437,328,41565
1747907049919.438,329,41572
1747907049920.437,329,41587
1747907049921.313,329,41580
1747907049922.312,329,41556
1747907049923.313,329,41515
1747907049924.312,329,41486
1747907049925.313,329,41456
1747907049926.312,329,41435
1747907049927.313,329,41415
1747907049928.313,329,41403
1747907049929.312,329,41399
1747907049930.313,330,41413
1747907049931.312,330,41425
1747907049932.313,330,41446
1747907049933.312,330,41459
1747907049934.313,330,41463
1747907049935.312,330,41462
1747907049936.313,330,41462
1747907049937.187,330,41452
1747907049938.188,330,41426
1747907049939.188,330,41411
1747907049940.187,330,41393
1747907049941.188,331,41371
1747907049942.187,331,41348
1747907049943.188,331,41333
1747907049944.187,331,41329
1747907049945.188,331,41332
1747907049946.187,331,41342
1747907049947.188,331,41348
1747907049948.187,331,41353
1747907049949.188,331,41357
1747907049950.187,331,41369
1747907049951.188,331,41380
1747907049952.187,332,41390
1747907049953.125,332,41383
1747907049954.125,332,41362
1747907049955.125,332,41339
1747907049956.125,332,41312
1747907049957.125,332,41282
1747907049958.125,332,41260
1747907049959.125,332,41248
1747907049960.125,332,41238
1747907049961.125,332,41227
1747907049962.125,332,41240
1747907049963.125,333,41259
1747907049964.125,333,41269
1747907049965.125,333,41273
1747907049966.125,333,41271
1747907049967.125,333,41267
1747907049968.125,333,41263
1747907049968.969,333,41251
1747907049969.969,333,41243
1747907049970.969,333,41227
1747907049971.969,333,41215
1747907049972.969,333,41204
1747907049973.969,334,41195
1747907049974.969,334,41184
1747907049975.969,334,41170
1747907049976.969,334,41168
1747907049977.969,334,41182
1747907049978.969,334,41186
1747907049979.969,334,41187
1747907049980.969,334,41189
1747907049981.9692,334,41181
1747907049982.969,334,41170
1747907049983.969,334,41156
1747907049984.875,335,41136
1747907049985.875,335,41107
1747907049986.875,335,41076
1747907049987.875,335,41053
1747907049988.875,335,41054
1747907049989.875,335,41076
1747907049990.875,335,41099
1747907049991.875,335,41136
1747907049992.875,335,41174
1747907049993.875,335,41207
1747907049994.875,335,41227
1747907049995.875,336,41241
1747907049996.875,336,41243
1747907049997.875,336,41231
1747907049998.875,336,41212
1747907049999.875,336,41205
1747907050000.719,336,41193
1747907050001.719,336,41163
1747907050002.719,336,41131
1747907050003.719,336,41096
1747907050004.719,336,41070
1747907050005.719,336,41048
1747907050006.719,337,41027
1747907050007.719,337,41023
1747907050008.719,337,41035
1747907050009.719,337,41060
1747907050010.719,337,41089
1747907050011.719,337,41109
1747907050012.719,337,41123
1747907050013.719,337,41123
1747907050014.719,337,41120
1747907050015.719,337,41114
1747907050016.625,337,41082
1747907050017.625,338,41043
1747907050018.625,338,41007
1747907050019.625,338,40974
1747907050020.625,338,40953
1747907050021.625,338,40941
1747907050022.625,338,40945
1747907050023.625,338,40954
1747907050024.625,338,40974
1747907050025.625,338,41014
1747907050026.625,338,41064
1747907050027.625,338,41130
1747907050028.625,339,41191
1747907050029.625,339,41239
1747907050030.625,339,41270
1747907050031.625,339,41280
1747907050032.5,339,41265
1747907050033.5,339,41216
1747907050034.5,339,41170
1747907050035.5,339,41112
1747907050036.5,339,41047
1747907050037.5,339,40990
1747907050038.5,339,40938
1747907050039.5,340,40895
1747907050040.5,340,40863
1747907050041.5,340,40851
1747907050042.5,340,40862
1747907050043.5,340,40879
1747907050044.5,340,40913
1747907050045.5,340,40961
1747907050046.5,340,41021
1747907050047.5,340,41100
1747907050048.375,340,41176
1747907050049.375,340,41249
1747907050050.375,341,41328
1747907050051.375,341,41419
1747907050052.375,341,41519
1747907050053.375,341,41618
1747907050054.375,341,41713
1747907050055.375,341,41798
1747907050056.375,341,41874
1747907050057.375,341,41961
1747907050058.375,341,42043
1747907050059.375,341,42122
1747907050060.375,341,42205
1747907050061.375,342,42278
1747907050062.375,342,42344
1747907050063.375,342,42406
1747907050064.25,342,42459
1747907050065.25,342,42498
1747907050066.25,342,42530
1747907050067.25,342,42558
1747907050068.25,342,42579
1747907050069.25,342,42590
1747907050070.25,342,42587
1747907050071.25,342,42564
1747907050072.25,343,42532
1747907050073.25,343,42489
1747907050074.25,343,42430
1747907050075.25,343,42371
1747907050076.25,343,42313
1747907050077.25,343,42258
1747907050078.25,343,42209
1747907050079.25,343,42164
1747907050080.125,343,42105
1747907050081.125,343,42036
1747907050082.125,343,41971
1747907050083.125,344,41918
1747907050084.125,344,41884
1747907050085.125,344,41846
1747907050086.125,344,41809
1747907050087.125,344,41771
1747907050088.125,344,41746
1747907050089.125,344,41723
1747907050090.125,344,41702
1747907050091.125,344,41688
1747907050092.125,344,41666
1747907050093.125,344,41637
1747907050094.125,345,41605
1747907050095.125,345,41575
1747907050096.063,345,41531
1747907050097.062,345,41479
1747907050098.063,345,41425
1747907050099.062,345,41382
1747907050100.063,345,41351
1747907050101.062,345,41327
1747907050102.063,345,41321
1747907050103.062,345,41319
1747907050104.063,345,41327
1747907050105.062,346,41335
1747907050106.063,346,41349
1747907050107.062,346,41368
1747907050108.063,346,41393
1747907050109.062,346,41415
1747907050110.063,346,41430
1747907050111.063,346,41433
1747907050111.906,346,41405
1747907050112.906,346,41380
1747907050113.906,346,41353
1747907050114.906,346,41329
1747907050115.906,347,41323
1747907050116.906,347,41328
1747907050117.906,347,41354
1747907050118.906,347,41387
1747907050119.906,347,41444
1747907050120.906,347,41517
1747907050121.906,347,41593
1747907050122.906,347,41673
1747907050123.906,347,41747
1747907050124.906,347,41825
1747907050125.906,347,41897
1747907050126.906,348,41972
1747907050127.781,348,42029
1747907050128.781,348,42074
1747907050129.781,348,42107
1747907050130.781,348,42116
1747907050131.781,348,42113
1747907050132.781,348,42107
1747907050133.781,348,42097
1747907050134.7808,348,42085
1747907050135.781,348,42087
1747907050136.781,348,42091
1747907050137.781,349,42091
1747907050138.781,349,42080
1747907050139.781,349,42062
1747907050140.781,349,42032
1747907050141.781,349,41985
1747907050142.781,349,41931
1747907050143.656,349,41857
1747907050144.656,349,41772
1747907050145.656,349,41695
1747907050146.656,349,41618
1747907050147.656,349,41544
1747907050148.656,350,41471
1747907050149.656,350,41396
1747907050150.656,350,41327
1747907050151.656,350,41260
1747907050152.656,350,41190
1747907050153.656,350,41115
1747907050154.656,350,41032
1747907050155.656,350,40933
1747907050156.656,350,40828
1747907050157.656,350,40728
1747907050158.6558,350,40647
1747907050159.531,351,40576
1747907050160.531,351,40509
1747907050161.531,351,40455
1747907050162.531,351,40418
1747907050163.531,351,40393
1747907050164.531,351,40389
1747907050165.531,351,40397
1747907050166.531,351,40404
1747907050167.531,351,40423
1747907050168.531,351,40438
1747907050169.531,351,40449
1747907050170.531,352,40456
1747907050171.531,352,40467
1747907050172.531,352,40473
1747907050173.531,352,40473
1747907050174.531,352,40472
1747907050175.406,352,40456
1747907050176.406,352,40433
1747907050177.406,352,40421
1747907050178.406,352,40420
1747907050179.406,352,40434
1747907050180.406,352,40451
1747907050181.406,353,40467
1747907050182.406,353,40463
1747907050183.406,353,40468
1747907050184.406,353,40479
1747907050185.406,353,40484
1747907050186.406,353,40488
1747907050187.406,353,40477
1747907050188.406,353,40455
1747907050189.406,353,40431
1747907050190.406,353,40406
1747907050191.281,353,40372
1747907050192.281,354,40343
1747907050193.281,354,40310
1747907050194.281,354,40279
1747907050195.281,354,40259
1747907050196.281,354,40247
1747907050197.2808,354,40249
1747907050198.281,354,40258
1747907050199.281,354,40278
1747907050200.281,354,40305
1747907050201.281,354,40322
1747907050202.281,354,40333
1747907050203.281,355,40337
1747907050204.281,355,40332
1747907050205.281,355,40326
1747907050206.281,355,40306
1747907050207.156,355,40265
1747907050208.156,355,40223
1747907050209.156,355,40178
1747907050210.156,355,40139
1747907050211.156,355,40108
1747907050212.156,355,40086
1747907050213.156,355,40063
1747907050214.156,356,40051
1747907050215.156,356,40052
1747907050216.156,356,40079
1747907050217.156,356,40118
1747907050218.156,356,40151
1747907050219.156,356,40180
1747907050220.156,356,40202
1747907050221.1558,356,40215
1747907050222.156,356,40220
1747907050223.031,356,40203
1747907050224.031,356,40185
1747907050225.031,357,40154
1747907050226.031,357,40129
1747907050227.031,357,40103
1747907050228.031,357,40079
1747907050229.031,357,40053
1747907050230.031,357,40040
1747907050231.031,357,40046
1747907050232.031,357,40061
1747907050233.031,357,40079
1747907050234.031,357,40094
1747907050235.031,357,40106
1747907050236.031,358,40113
1747907050237.031,358,40123
1747907050238.031,358,40124
1747907050238.906,358,40113
1747907050239.906,358,40085
1747907050240.906,358,40056
1747907050241.906,358,40027
1747907050242.906,358,39995
1747907050243.906,358,39966
1747907050244.906,358,39939
1747907050245.906,358,39918
1747907050246.906,359,39913
1747907050247.906,359,39936
1747907050248.906,359,39957
1747907050249.906,359,39975
1747907050250.906,359,39992
1747907050251.906,359,40004
1747907050252.906,359,40004
1747907050253.906,359,40023
1747907050254.781,359,40027
1747907050255.781,359,40014
1747907050256.781,359,40003
1747907050257.781,360,39986
1747907050258.781,360,39973
1747907050259.7808,360,39960
1747907050260.781,360,39952
1747907050261.781,360,39948
1747907050262.781,360,39945
1747907050263.781,360,39942
1747907050264.781,360,39943
1747907050265.781,360,39947
1747907050266.781,360,39949
1747907050267.781,360,39947
1747907050268.781,361,39947
1747907050269.781,361,39945
1747907050270.688,361,39932
1747907050271.687,361,39912
1747907050272.688,361,39897
1747907050273.6868,361,39893
1747907050274.688,361,39890
1747907050275.687,361,39891
1747907050276.688,361,39899
1747907050277.687,361,39908
1747907050278.688,361,39925
1747907050279.687,362,39942
1747907050280.688,362,39960
1747907050281.687,362,39964
1747907050282.688,362,39959
1747907050283.687,362,39946
1747907050284.688,362,39941
1747907050285.687,362,39932
1747907050286.562,362,39906
1747907050287.563,362,39869
1747907050288.562,362,39825
1747907050289.563,362,39790
1747907050290.562,363,39765
1747907050291.563,363,39759
1747907050292.562,363,39767
1747907050293.563,363,39772
1747907050294.562,363,39788
1747907050295.563,363,39809
1747907050296.562,363,39826
1747907050297.563,363,39834
1747907050298.563,363,39840
1747907050299.562,363,39843
1747907050300.563,363,39825
1747907050301.562,364,39791
1747907050302.438,364,39750
1747907050303.437,364,39713
1747907050304.4382,364,39676
1747907050305.437,364,39659
1747907050306.438,364,39643
1747907050307.437,364,39647
1747907050308.438,364,39651
1747907050309.438,364,39662
1747907050310.437,364,39692
1747907050311.438,364,39731
1747907050312.437,365,39771
1747907050313.438,365,39797
1747907050314.437,365,39810
1747907050315.438,365,39816
1747907050316.437,365,39819
1747907050317.438,365,39819
1747907050318.312,365,39802
1747907050319.313,365,39761
1747907050320.312,365,39711
1747907050321.312,365,39667
1747907050322.313,365,39628
1747907050323.312,366,39607
1747907050324.313,366,39579
1747907050325.312,366,39566
1747907050326.313,366,39559
1747907050327.312,366,39564
1747907050328.3132,366,39577
1747907050329.312,366,39605
1747907050330.313,366,39622
1747907050331.312,366,39644
1747907050332.313,366,39653
1747907050333.312,366,39659
1747907050334.187,367,39648
1747907050335.188,367,39629
1747907050336.1868,367,39610
1747907050337.188,367,39604
1747907050338.187,367,39585
1747907050339.188,367,39569
1747907050340.187,367,39548
1747907050341.188,367,39530
1747907050342.187,367,39525
1747907050343.188,367,39531
1747907050344.187,367,39545
1747907050345.188,368,39553
1747907050346.187,368,39556
1747907050347.188,368,39553
1747907050348.187,368,39564
1747907050349.188,368,39569
1747907050350.063,368,39557
1747907050351.062,368,39525
1747907050352.063,368,39489
1747907050353.062,368,39461
1747907050354.063,368,39438
1747907050355.062,368,39421
1747907050356.063,369,39416
1747907050357.062,369,39405
1747907050358.063,369,39403
1747907050359.062,369,39405
1747907050360.063,369,39408
1747907050361.063,369,39403
1747907050362.062,369,39395
1747907050363.063,369,39387
1747907050364.062,369,39374
1747907050365.063,369,39359
1747907050366.031,369,39335
1747907050367.031,370,39310
1747907050368.031,370,39285
1747907050369.031,370,39265
1747907050370.031,370,39252
1747907050371.031,370,39246
1747907050372.031,370,39239
1747907050373.031,370,39239
1747907050374.031,370,39248
1747907050375.031,370,39262
1747907050376.031,370,39272
1747907050377.031,370,39272
1747907050378.031,371,39261
1747907050379.031,371,39248
1747907050380.031,371,39226
1747907050381.031,371,39201
1747907050381.813,371,39169
1747907050382.812,371,39127
1747907050383.812,371,39089
1747907050384.813,371,39047
1747907050385.812,371,39028
1747907050386.813,371,39016
1747907050387.812,371,39002
1747907050388.813,372,38994
1747907050389.812,372,39002
1747907050390.8132,372,39023
1747907050391.812,372,39038
1747907050392.813,372,39043
1747907050393.812,372,39043
1747907050394.813,372,39031
1747907050395.812,372,39011
1747907050396.813,372,38990
1747907050397.688,372,38955
1747907050398.6868,372,38913
1747907050399.688,373,38872
1747907050400.687,373,38838
1747907050401.688,373,38804
1747907050402.687,373,38791
1747907050403.688,373,38781
1747907050404.687,373,38794
1747907050405.688,373,38825
1747907050406.687,373,38858
1747907050407.688,373,38890
1747907050408.687,373,38903
1747907050409.688,373,38910
1747907050410.687,374,38897
1747907050411.688,374,38880
1747907050412.688,374,38857
1747907050413.531,374,38823
1747907050414.531,374,38763
1747907050415.531,374,38721
1747907050416.531,374,38683
1747907050417.531,374,38651
1747907050418.531,374,38625
1747907050419.531,374,38613
1747907050420.531,374,38601
1747907050421.531,375,38603
1747907050422.531,375,38615
1747907050423.531,375,38637
1747907050424.531,375,38659
1747907050425.531,375,38677
1747907050426.531,375,38688
1747907050427.531,375,38699
1747907050428.531,375,38695
1747907050429.406,375,38679
1747907050430.406,375,38653
1747907050431.406,375,38618
1747907050432.406,376,38593
1747907050433.406,376,38559
1747907050434.406,376,38534
1747907050435.406,376,38513
1747907050436.406,376,38501
1747907050437.406,376,38504
1747907050438.406,376,38517
1747907050439.406,376,38524
1747907050440.406,376,38536
1747907050441.406,376,38545
1747907050442.406,376,38551
1747907050443.406,377,38564
1747907050444.406,377,38578
1747907050445.312,377,38573
1747907050446.312,377,38545
1747907050447.313,377,38521
1747907050448.312,377,38498
1747907050449.313,377,38482
1747907050450.312,377,38471
1747907050451.313,377,38463
1747907050452.312,377,38446
1747907050453.3132,377,38438
1747907050454.312,378,38442
1747907050455.313,378,38450
1747907050456.312,378,38458
1747907050457.313,378,38466
1747907050458.312,378,38465
1747907050459.313,378,38464
1747907050460.312,378,38457
1747907050461.156,378,38438
1747907050462.156,378,38421
1747907050463.156,378,38411
1747907050464.156,378,38399
1747907050465.156,379,38379
1747907050466.156,379,38362
1747907050467.156,379,38346
1747907050468.156,379,38336
1747907050469.156,379,38341
1747907050470.156,379,38351
1747907050471.1558,379,38353
1747907050472.156,379,38350
1747907050473.156,379,38346
1747907050474.156,379,38337
1747907050475.156,379,38334
1747907050476.156,380,38329
1747907050477.094,380,38318
1747907050478.094,380,38299
1747907050479.094,380,38284
1747907050480.094,380,38288
1747907050481.094,380,38298
1747907050482.094,380,38312
1747907050483.094,380,38317
1747907050484.094,380,38322
1747907050485.094,380,38331
1747907050486.094,380,38343
1747907050487.094,381,38356
1747907050488.094,381,38364
1747907050489.094,381,38366
1747907050490.094,381,38354
1747907050491.094,381,38336
1747907050492.094,381,38320
1747907050492.937,381,38291
1747907050493.938,381,38250
1747907050494.937,381,38220
1747907050495.938,381,38192
1747907050496.938,381,38174
1747907050497.937,382,38162
1747907050498.938,382,38156
1747907050499.937,382,38161
1747907050500.938,382,38176
1747907050501.937,382,38208
1747907050502.938,382,38228
1747907050503.937,382,38247
1747907050504.938,382,38256
1747907050505.937,382,38256
1747907050506.938,382,38251
1747907050507.937,382,38242
1747907050508.844,383,38214
1747907050509.844,383,38175
1747907050510.844,383,38136
1747907050511.844,383,38104
1747907050512.844,383,38084
1747907050513.844,383,38067
1747907050514.844,383,38068
1747907050515.844,383,38070
1747907050516.844,383,38092
1747907050517.844,383,38126
1747907050518.844,383,38167
1747907050519.844,384,38204
1747907050520.844,384,38230
1747907050521.844,384,38252
1747907050522.844,384,38262
1747907050523.844,384,38258
1747907050524.688,384,38242
1747907050525.687,384,38210
1747907050526.688,384,38176
1747907050527.687,384,38139
1747907050528.688,384,38098
1747907050529.687,384,38075
1747907050530.688,385,38058
1747907050531.687,385,38047
1747907050532.688,385,38048
1747907050533.687,385,38056
1747907050534.688,385,38068
1747907050535.687,385,38086
1747907050536.688,385,38106
1747907050537.688,385,38132
1747907050538.687,385,38148
1747907050539.688,385,38159
1747907050540.562,385,38155
1747907050541.563,386,38128
1747907050542.562,386,38108
1747907050543.563,386,38089
1747907050544.562,386,38074
1747907050545.563,386,38065
1747907050546.562,386,38049
1747907050547.563,386,38040
1747907050548.563,386,38045
1747907050549.562,386,38056
1747907050550.563,386,38066
1747907050551.562,386,38072
1747907050552.563,387,38075
1747907050553.562,387,38081
1747907050554.563,387,38076
1747907050555.562,387,38088
1747907050556.469,387,38094
1747907050557.469,387,38086
1747907050558.469,387,38074
1747907050559.469,387,38063
1747907050560.469,387,38054
1747907050561.469,387,38046
1747907050562.469,387,38034
1747907050563.469,388,38016
1747907050564.469,388,38009
1747907050565.469,388,38011
1747907050566.469,388,38002
1747907050567.469,388,38003
1747907050568.469,388,38001
1747907050569.469,388,38009
1747907050570.469,388,38020
1747907050571.469,388,38028
1747907050572.313,388,38020
1747907050573.312,388,37993
1747907050574.313,389,37979
1747907050575.312,389,37970
1747907050576.313,389,37975
1747907050577.312,389,37986
1747907050578.3132,389,37998
1747907050579.312,389,38012
1747907050580.313,389,38029
1747907050581.312,389,38047
1747907050582.313,389,38065
1747907050583.312,389,38072
1747907050584.313,389,38063
1747907050585.312,390,38046
1747907050586.313,390,38030
1747907050587.312,390,38015
1747907050588.187,390,37985
1747907050589.188,390,37961
1747907050590.187,390,37938
1747907050591.188,390,37919
1747907050592.187,390,37905
1747907050593.188,390,37903
1747907050594.187,390,37913
1747907050595.188,390,37929
1747907050596.187,391,37960
1747907050597.188,391,37992
1747907050598.187,391,38020
1747907050599.188,391,38042
1747907050600.188,391,38046
1747907050601.187,391,38045
1747907050602.188,391,38029
1747907050603.187,391,38006
1747907050604.063,391,37967
1747907050605.062,391,37928
1747907050606.063,391,37891
1747907050607.062,392,37853
1747907050608.063,392,37835
1747907050609.062,392,37819
1747907050610.063,392,37817
1747907050611.063,392,37814
1747907050612.062,392,37830
1747907050613.063,392,37857
1747907050614.062,392,37892
1747907050615.063,392,37917
1747907050616.062,392,37944
1747907050617.063,392,37953
1747907050618.062,393,37961
1747907050619.063,393,37971
1747907050619.937,393,37956
1747907050620.938,393,37933
1747907050621.938,393,37903
1747907050622.937,393,37868
1747907050623.938,393,37835
1747907050624.937,393,37814
1747907050625.938,393,37794
1747907050626.937,393,37789
1747907050627.938,393,37798
1747907050628.937,394,37823
1747907050629.938,394,37851
1747907050630.937,394,37874
1747907050631.938,394,37900
1747907050632.937,394,37915
1747907050633.938,394,37930
1747907050634.937,394,37941
1747907050635.844,394,37927
1747907050636.844,394,37905
1747907050637.844,394,37881
1747907050638.844,394,37854
1747907050639.844,395,37837
1747907050640.844,395,37811
1747907050641.844,395,37778
1747907050642.844,395,37753
1747907050643.844,395,37749
1747907050644.844,395,37767
1747907050645.844,395,37784
