Local: ,2025-05-22 00:00:00+02:00,tz_sec ,7200
Linux Epoch (ms):,1747864800000.0
PPG Timestamp,PPG,ADXL Timestamp,X,Y,Z
1747907046663.406,237326,1747907046644.469,-81,-33,-121
1747907046683.25,237359,1747907046664.281,-79,-32,-121
1747907046703.094,237388,1747907046684.188,-80,-32,-121
1747907046722.938,237420,1747907046704.0,-77,-34,-119
1747907046742.781,237456,1747907046723.875,-75,-33,-121
1747907046762.656,237508,1747907046743.719,-89,-32,-122
1747907046782.5,237566,1747907046763.562,-89,-36,-118
1747907046802.344,237583,1747907046783.406,-80,-33,-122
1747907046822.188,237634,1747907046803.281,-80,-32,-124
1747907046842.031,237680,1747907046823.125,-87,-32,-116
1747907046861.937,237737,1747907046842.969,-97,-32,-124
1747907046881.75,237752,1747907046862.844,-84,-29,-125
1747907046901.656,237694,1747907046882.656,-77,-39,-122
1747907046921.438,237592,1747907046902.5,-84,-33,-120
1747907046941.312,237441,1747907046922.375,-79,-36,-122
1747907046961.125,237287,1747907046942.219,-88,-29,-118
1747907046981.0,237126,1747907046962.094,-80,-32,-137
1747907047000.844,236981,1747907046981.906,-88,-32,-121
1747907047020.688,236863,1747907047001.781,-80,-31,-118
1747907047040.531,236753,1747907047021.625,-76,-36,-116
1747907047060.375,236692,1747907047041.469,-87,-36,-121
1747907047080.25,236631,1747907047061.281,-88,-34,-121
1747907047100.125,236589,1747907047081.156,-79,-34,-121
1747907047119.969,236576,1747907047101.031,-81,-29,-121
1747907047139.812,236572,1747907047120.906,-79,-32,-121
1747907047159.688,236557,1747907047140.75,-87,-26,-114
1747907047179.563,236556,1747907047160.563,-78,-37,-117
1747907047199.375,236526,1747907047180.469,-77,-37,-117
1747907047219.25,236492,1747907047200.344,-84,-34,-121
1747907047239.094,236443,1747907047220.156,-88,-29,-121
1747907047258.938,236430,1747907047240.0,-80,-45,-118
1747907047278.781,236406,1747907047259.875,-89,-34,-116
1747907047298.625,236378,1747907047279.687,-74,-39,-121
1747907047318.5,236403,1747907047299.562,-80,-40,-129
1747907047338.344,236387,1747907047319.406,-83,-33,-121
1747907047358.156,236398,1747907047339.25,-80,-36,-130
1747907047378.031,236442,1747907047359.125,-87,-33,-114
1747907047397.906,236452,1747907047378.969,-80,-32,-113
1747907047417.781,236477,1747907047398.813,-84,-32,-121
1747907047437.625,236532,1747907047418.781,-77,-34,-120
1747907047457.5,236573,1747907047438.562,-84,-33,-121
1747907047477.344,236604,1747907047458.406,-93,-36,-121
1747907047497.219,236660,1747907047478.25,-95,-33,-118
1747907047517.094,236705,1747907047498.156,-80,-36,-120
1747907047536.906,236798,1747907047518.0308,-78,-32,-116
1747907047556.75,236816,1747907047537.812,-87,-34,-112
1747907047576.625,236819,1747907047557.687,-80,-34,-121
1747907047596.437,236736,1747907047577.531,-97,-10,-117
1747907047616.313,236588,1747907047597.375,-77,-32,-121
1747907047636.219,236431,1747907047617.219,-88,-34,-116
1747907047656.0618,236231,1747907047637.094,-83,-41,-103
1747907047675.875,236060,1747907047657.031,-80,-32,-121
1747907047695.719,235886,1747907047676.813,-87,-36,-124
1747907047715.594,235758,1747907047696.656,-77,-31,-128
1747907047735.469,235641,1747907047716.5,-84,-36,-121
1747907047755.25,235561,1747907047736.375,-74,-32,-122
1747907047775.125,235489,1747907047756.219,-79,-29,-121
1747907047795.0,235454,1747907047776.031,-92,-33,-121
1747907047814.844,235412,1747907047795.969,-92,-34,-117
1747907047834.719,235386,1747907047815.781,-78,-32,-127
1747907047854.562,235351,1747907047835.656,-94,-36,-114
1747907047874.5,235307,1747907047855.5,-72,-37,-121
1747907047894.313,235262,1747907047875.344,-89,-32,-120
1747907047914.125,235220,1747907047895.219,-81,-36,-122
1747907047933.969,235183,1747907047915.094,-82,-24,-117
1747907047953.938,235127,1747907047934.906,-87,-32,-122
1747907047973.688,235102,1747907047954.844,-80,-32,-121
1747907047993.531,235104,1747907047974.625,-84,-33,-113
1747907048013.406,235090,1747907047994.5,-93,-34,-116
1747907048033.25,235099,1747907048014.344,-80,-38,-118
1747907048053.188,235101,1747907048034.188,-85,-36,-121
1747907048073.031,235117,1747907048054.062,-80,-32,-125
1747907048092.875,235135,1747907048073.937,-80,-33,-125
1747907048112.719,235197,1747907048093.75,-88,-36,-121
1747907048132.594,235200,1747907048113.625,-87,-32,-125
1747907048152.406,235243,1747907048133.5,-80,-32,-116
1747907048172.25,235275,1747907048153.375,-82,-36,-116
1747907048192.125,235341,1747907048173.187,-84,-35,-115
1747907048211.937,235382,1747907048193.031,-82,-34,-114
1747907048231.781,235407,1747907048212.875,-84,-40,-116
1747907048251.625,235342,1747907048232.719,-79,-32,-122
1747907048271.5,235216,1747907048252.594,-88,-32,-128
1747907048291.375,235013,1747907048272.406,-80,-33,-122
1747907048311.188,234776,1747907048292.281,-89,-32,-121
1747907048331.063,234569,1747907048312.125,-80,-20,-121
1747907048350.937,234363,1747907048332.031,-90,-34,-121
1747907048370.781,234174,1747907048351.875,-80,-34,-117
1747907048390.625,234006,1747907048371.719,-88,-36,-112
1747907048410.5,233863,1747907048391.563,-79,-36,-116
1747907048430.313,233765,1747907048411.437,-90,-32,-118
1747907048450.187,233670,1747907048431.219,-77,-32,-121
1747907048470.031,233602,1747907048451.125,-79,-33,-117
1747907048489.875,233548,1747907048470.969,-89,-34,-121
1747907048509.75,233508,1747907048490.813,-81,-32,-121
1747907048529.594,233437,1747907048510.656,-89,-33,-124
1747907048549.437,233390,1747907048530.531,-77,-34,-118
1747907048569.281,233317,1747907048550.375,-81,-37,-118
1747907048589.125,233274,1747907048570.219,-89,-32,-114
1747907048608.969,233226,1747907048590.031,-64,-31,-119
1747907048628.844,233182,1747907048609.906,-81,-36,-121
1747907048648.656,233148,1747907048629.781,-92,-35,-116
1747907048668.531,233138,1747907048649.625,-79,-32,-114
1747907048688.406,233124,1747907048669.4692,-87,-36,-116
1747907048708.281,233136,1747907048689.312,-88,-32,-118
1747907048728.094,233154,1747907048709.187,-79,-31,-128
1747907048747.969,233184,1747907048729.063,-77,-30,-122
1747907048767.781,233219,1747907048748.875,-80,-34,-118
1747907048787.656,233266,1747907048768.719,-93,-34,-119
1747907048807.5,233290,1747907048788.562,-77,-34,-120
1747907048827.344,233346,1747907048808.438,-84,-30,-117
1747907048847.219,233390,1747907048828.281,-88,-32,-118
1747907048867.188,233444,1747907048848.125,-79,-32,-121
1747907048886.906,233498,1747907048868.031,-80,-36,-120
1747907048906.75,233498,1747907048887.844,-93,-29,-121
1747907048926.625,233421,1747907048907.656,-80,-32,-117
1747907048946.469,233262,1747907048927.563,-97,-37,-116
1747907048966.313,233035,1747907048947.406,-92,-33,-117
1747907048986.156,232774,1747907048967.219,-79,-33,-120
1747907049006.031,232543,1747907048987.094,-79,-32,-114
1747907049025.906,232324,1747907049006.906,-80,-34,-121
1747907049045.75,232123,1747907049026.813,-90,-32,-125
1747907049065.594,231929,1747907049046.656,-90,-34,-112
1747907049085.469,231793,1747907049066.5,-80,-39,-125
1747907049105.313,231679,1747907049086.375,-79,-32,-130
1747907049125.156,231573,1747907049106.25,-80,-36,-120
1747907049145.0,231481,1747907049126.094,-85,-32,-117
1747907049164.844,231427,1747907049145.906,-89,-36,-122
1747907049184.719,231352,1747907049165.781,-79,-33,-118
1747907049204.594,231292,1747907049185.625,-90,-35,-117
1747907049224.406,231231,1747907049205.5308,-80,-34,-125
1747907049244.281,231184,1747907049225.312,-82,-32,-122
1747907049264.156,231107,1747907049245.219,-80,-36,-121
1747907049283.969,231050,1747907049265.063,-79,-32,-126
1747907049303.813,231005,1747907049284.938,-76,-33,-122
1747907049323.719,230963,1747907049304.719,-72,-33,-122
1747907049343.531,230934,1747907049324.625,-96,-33,-125
1747907049363.375,230915,1747907049344.469,-77,-33,-116
1747907049383.25,230915,1747907049364.281,-81,-33,-121
1747907049403.125,230939,1747907049384.156,-81,-32,-129
1747907049422.969,230943,1747907049404.031,-77,-32,-121
1747907049442.812,230970,1747907049423.875,-93,-34,-121
1747907049462.656,230995,1747907049443.75,-89,-31,-126
1747907049482.531,231066,1747907049463.563,-84,-32,-121
1747907049502.375,231103,1747907049483.469,-88,-34,-121
1747907049522.219,231150,1747907049503.281,-76,-35,-114
1747907049542.094,231218,1747907049523.125,-77,-36,-122
1747907049561.906,231263,1747907049543.0,-79,-29,-121
1747907049581.781,231335,1747907049562.813,-87,-25,-122
1747907049601.625,231337,1747907049582.719,-77,-33,-120
1747907049621.469,231253,1747907049602.562,-69,-36,-118
1747907049641.344,231057,1747907049622.375,-80,-36,-112
1747907049661.188,230831,1747907049642.25,-77,-32,-121
1747907049681.031,230550,1747907049662.125,-84,-32,-125
1747907049700.906,230287,1747907049681.969,-88,-34,-121
1747907049720.75,230044,1747907049701.813,-76,-32,-121
1747907049740.625,229859,1747907049721.656,-80,-32,-135
1747907049760.469,229672,1747907049741.562,-84,-32,-122
1747907049780.312,229531,1747907049761.406,-84,-29,-117
1747907049800.187,229400,1747907049781.25,-80,-34,-128
1747907049820.031,229292,1747907049801.125,-80,-31,-122
1747907049839.875,229191,1747907049820.969,-72,-32,-117
1747907049859.719,229129,1747907049840.812,-81,-34,-121
1747907049879.625,229071,1747907049860.656,-84,-32,-113
1747907049899.469,229018,1747907049880.531,-80,-32,-122
1747907049919.313,228948,1747907049900.4058,-97,-32,-118
1747907049939.188,228877,1747907049920.25,-82,-32,-116
1747907049959.031,228827,1747907049940.094,-80,-36,-120
1747907049978.875,228777,1747907049959.938,-87,-31,-120
1747907049998.719,228722,1747907049979.781,-78,-28,-121
1747907050018.563,228709,1747907049999.687,-87,-25,-122
1747907050038.437,228681,1747907050019.531,-84,-36,-114
1747907050058.312,228690,1747907050039.375,-85,-36,-121
1747907050078.125,228680,1747907050059.188,-79,-41,-101
1747907050097.969,228723,1747907050079.125,-88,-33,-114
1747907050117.813,228760,1747907050098.937,-77,-33,-121
1747907050137.687,228782,1747907050118.75,-77,-36,-128
1747907050157.531,228858,1747907050138.625,-84,-32,-124
1747907050177.375,228903,1747907050158.5,-88,-34,-122
1747907050197.219,228949,1747907050178.313,-74,-36,-121
1747907050217.094,229012,1747907050198.156,-90,-29,-120
1747907050236.937,229076,1747907050218.0,-85,-33,-116
1747907050256.75,229162,1747907050237.813,-80,-35,-123
1747907050276.625,229241,1747907050257.719,-77,-30,-121
1747907050296.469,229337,1747907050277.531,-72,-31,-117
1747907050316.344,229406,1747907050297.406,-82,-32,-125
1747907050336.156,229470,1747907050317.25,-77,-32,-122
1747907050356.0,229447,1747907050337.063,-81,-29,-125
1747907050375.844,229322,1747907050356.938,-89,-31,-121
1747907050395.688,229123,1747907050376.75,-82,-34,-114
1747907050415.5,228878,1747907050396.625,-80,-41,-114
1747907050435.344,228614,1747907050416.469,-88,-31,-121
1747907050455.219,228412,1747907050436.281,-80,-38,-128
1747907050475.063,228232,1747907050456.125,-87,-33,-128
1747907050494.906,228052,1747907050475.969,-84,-32,-116
1747907050514.75,227945,1747907050495.875,-88,-34,-113
1747907050534.625,227799,1747907050515.688,-84,-33,-121
1747907050554.469,227730,1747907050535.531,-85,-32,-124
1747907050574.281,227683,1747907050555.406,-76,-31,-121
1747907050594.156,227638,1747907050575.219,-76,-26,-122
1747907050614.031,227599,1747907050595.062,-82,-33,-114
1747907050633.844,227547,1747907050614.969,-92,-31,-125
1747907050653.688,227537,1747907050634.75,-87,-32,-112
1747907050673.531,227489,1747907050654.625,-77,-38,-121
1747907050693.375,227482,1747907050674.469,-97,-8,-137
1747907050713.25,227436,1747907050694.313,-87,-36,-116
1747907050733.063,227438,1747907050714.156,-87,-33,-114
1747907050752.938,227432,1747907050734.0,-77,-32,-129
1747907050772.781,227439,1747907050753.875,-79,-36,-114
1747907050792.625,227437,1747907050773.6868,-77,-32,-116
1747907050812.469,227468,1747907050793.5,-85,-33,-116
1747907050832.281,227514,1747907050813.375,-84,-36,-121
1747907050852.156,227593,1747907050833.25,-93,-34,-119
1747907050872.031,227639,1747907050853.125,-88,-30,-125
1747907050891.875,227697,1747907050872.937,-80,-32,-121
1747907050911.688,227781,1747907050892.781,-80,-36,-121
1747907050931.563,227840,1747907050912.656,-84,-36,-125
1747907050951.437,227948,1747907050932.469,-80,-34,-116
1747907050971.281,228028,1747907050952.375,-65,-38,-113
1747907050991.094,228111,1747907050972.188,-79,-36,-112
1747907051010.969,228221,1747907050992.063,-93,-32,-122
1747907051030.813,228327,1747907051011.906,-85,-9,-128
1747907051050.687,228422,1747907051031.75,-89,-33,-120
1747907051070.5,228518,1747907051051.594,-80,-34,-122
1747907051090.375,228642,1747907051071.438,-89,-32,-129
1747907051110.219,228758,1747907051091.281,-80,-37,-122
1747907051130.063,228790,1747907051111.125,-87,-32,-121
1747907051149.906,228748,1747907051130.969,-80,-32,-120
1747907051169.75,228613,1747907051150.812,-88,-36,-121
1747907051189.594,228428,1747907051170.656,-77,-32,-120
1747907051209.438,228233,1747907051190.5,-80,-35,-124
1747907051229.281,228034,1747907051210.375,-73,-32,-117
1747907051249.125,227869,1747907051230.219,-77,-36,-121
1747907051268.969,227746,1747907051250.031,-90,-27,-116
1747907051288.844,227652,1747907051269.875,-74,-34,-121
1747907051308.656,227558,1747907051289.75,-57,-38,-121
1747907051328.531,227522,1747907051309.625,-90,-36,-112
1747907051348.375,227493,1747907051329.469,-74,-32,-120
1747907051368.25,227469,1747907051349.313,-90,-22,-121
1747907051388.094,227470,1747907051369.1558,-79,-32,-122
1747907051407.938,227472,1747907051389.031,-80,-34,-121
1747907051427.812,227471,1747907051408.875,-84,-32,-112
1747907051447.687,227450,1747907051428.719,-76,-33,-126
1747907051467.469,227437,1747907051448.625,-89,-34,-121
1747907051487.344,227411,1747907051468.437,-88,-32,-128
1747907051507.219,227404,1747907051488.281,-89,-33,-118
1747907051527.062,227430,1747907051508.125,-79,-30,-121
1747907051546.906,227435,1747907051528.031,-82,-34,-121
1747907051566.75,227463,1747907051547.813,-80,-40,-121
1747907051586.625,227517,1747907051567.687,-89,-31,-117
1747907051606.469,227572,1747907051587.531,-76,-23,-116
1747907051626.344,227648,1747907051607.375,-89,-33,-122
1747907051646.188,227718,1747907051627.281,-76,-36,-125
1747907051666.0308,227819,1747907051647.125,-85,-35,-112
1747907051685.906,227902,1747907051666.969,-77,-34,-116
1747907051705.75,227994,1747907051686.812,-91,-14,-122
1747907051725.594,228079,1747907051706.688,-80,-39,-117
1747907051745.531,228167,1747907051726.562,-77,-32,-114
1747907051765.312,228288,1747907051746.375,-79,-41,-108
1747907051785.156,228400,1747907051766.313,-80,-32,-124
1747907051804.969,228492,1747907051786.094,-87,-36,-121
1747907051824.844,228612,1747907051805.938,-77,-34,-125
1747907051844.75,228724,1747907051825.75,-87,-32,-113
1747907051864.625,228838,1747907051845.656,-90,-31,-125
1747907051884.437,228950,1747907051865.594,-80,-31,-122
1747907051904.313,229007,1747907051885.406,-90,-34,-121
1747907051924.156,228968,1747907051905.219,-81,-34,-121
1747907051944.0,228881,1747907051925.094,-80,-36,-121
1747907051963.844,228731,1747907051944.937,-90,-33,-121
1747907051983.781,228559,1747907051964.813,-72,-36,-116
1747907052003.594,228432,1747907051984.625,-84,-33,-112
1747907052023.438,228298,1747907052004.5,-79,-36,-124
1747907052043.312,228203,1747907052024.375,-68,-28,-119
1747907052063.188,228128,1747907052044.25,-87,-36,-121
1747907052083.031,228095,1747907052064.094,-80,-36,-122
1747907052102.875,228069,1747907052084.031,-84,-18,-116
1747907052122.719,228093,1747907052103.812,-80,-34,-121
1747907052142.594,228140,1747907052123.688,-77,-34,-127
1747907052162.469,228165,1747907052143.5,-87,-34,-112
1747907052182.313,228175,1747907052163.375,-90,-32,-121
1747907052202.187,228210,1747907052183.281,-81,-32,-116
1747907052222.062,228228,1747907052203.125,-88,-30,-125
1747907052241.9382,228254,1747907052222.969,-79,-36,-116
1747907052261.75,228273,1747907052242.844,-85,-33,-116
1747907052281.625,228293,1747907052262.687,-77,-34,-124
1747907052301.562,228325,1747907052282.562,-80,-40,-122
1747907052321.375,228382,1747907052302.5,-80,-40,-116
1747907052341.219,228438,1747907052322.25,-81,-36,-122
1747907052361.094,228477,1747907052342.187,-90,-36,-121
1747907052380.969,228560,1747907052362.0,-80,-34,-114
1747907052400.844,228630,1747907052381.875,-89,-32,-116
1747907052420.688,228732,1747907052401.75,-79,-32,-113
1747907052440.562,228816,1747907052421.625,-81,-21,-122
1747907052460.469,228926,1747907052441.5,-74,-34,-117
1747907052480.375,229010,1747907052461.375,-89,-33,-120
1747907052500.1882,229125,1747907052481.25,-78,-33,-103
1747907052520.062,229224,1747907052501.187,-92,-33,-113
1747907052539.906,229359,1747907052520.969,-85,-35,-117
1747907052559.781,229477,1747907052540.844,-77,-31,-121
1747907052579.625,229604,1747907052560.719,-85,-32,-120
1747907052599.531,229708,1747907052580.562,-79,-34,-121
1747907052619.344,229816,1747907052600.437,-75,-33,-125
1747907052639.219,229879,1747907052620.25,-89,-33,-120
1747907052659.031,229848,1747907052640.156,-80,-34,-118
1747907052678.938,229761,1747907052660.0,-80,-36,-118
1747907052698.812,229643,1747907052679.875,-77,-34,-124
1747907052718.656,229480,1747907052699.719,-80,-32,-125
1747907052738.531,229347,1747907052719.594,-80,-32,-114
1747907052758.375,229259,1747907052739.438,-77,-34,-122
1747907052778.25,229173,1747907052759.281,-80,-32,-121
1747907052798.125,229113,1747907052779.156,-84,-36,-121
1747907052817.969,229092,1747907052799.063,-79,-36,-114
1747907052837.813,229108,1747907052818.906,-87,-32,-121
1747907052857.687,229114,1747907052838.75,-80,-32,-120
1747907052877.531,229167,1747907052858.594,-92,-33,-121
1747907052897.375,229202,1747907052878.469,-74,-37,-112
1747907052917.25,229236,1747907052898.344,-80,-34,-125
1747907052937.094,229274,1747907052918.187,-79,-36,-121
1747907052956.969,229303,1747907052938.062,-92,-32,-122
1747907052976.8118,229351,1747907052957.875,-80,-32,-120
1747907052996.656,229396,1747907052977.75,-79,-36,-121
1747907053016.5,229440,1747907052997.563,-84,-32,-118
1747907053036.437,229489,1747907053017.437,-87,-34,-118
1747907053056.187,229549,1747907053037.344,-90,-32,-121
1747907053076.062,229619,1747907053057.156,-74,-33,-119
1747907053095.938,229690,1747907053077.0,-84,-39,-118
1747907053115.781,229778,1747907053096.844,-97,-32,-121
1747907053135.625,229871,1747907053116.687,-79,-36,-125
1747907053155.562,229973,1747907053136.563,-79,-32,-117
1747907053175.344,230094,1747907053156.406,-88,-33,-112
1747907053195.219,230189,1747907053176.25,-89,-32,-120
1747907053215.031,230316,1747907053196.125,-87,-34,-122
1747907053234.937,230439,1747907053215.969,-77,-36,-120
1747907053254.813,230571,1747907053235.844,-87,-33,-114
1747907053274.656,230676,1747907053255.719,-77,-34,-121
1747907053294.5,230831,1747907053275.562,-77,-30,-118
1747907053314.375,230985,1747907053295.437,-77,-32,-118
1747907053334.219,231112,1747907053315.281,-89,-32,-118
1747907053354.094,231228,1747907053335.188,-68,-29,-121
1747907053373.938,231316,1747907053355.031,-89,-34,-121
1747907053393.812,231330,1747907053374.875,-79,-31,-126
1747907053413.687,231271,1747907053394.719,-82,-33,-122
1747907053433.563,231144,1747907053414.594,-77,-32,-116
1747907053453.375,231016,1747907053434.469,-80,-36,-116
1747907053473.25,230876,1747907053454.344,-80,-32,-112
1747907053493.125,230755,1747907053474.156,-81,-36,-121
1747907053513.0,230684,1747907053494.0,-89,-14,-121
1747907053532.844,230613,1747907053513.937,-88,-32,-121
1747907053552.687,230592,1747907053533.781,-81,-39,-118
1747907053572.562,230553,1747907053553.625,-73,-34,-100
1747907053592.406,230571,1747907053573.5,-81,-32,-119
1747907053612.25,230583,1747907053593.313,-80,-33,-120
1747907053632.094,230607,1747907053613.219,-87,-32,-117
1747907053651.969,230639,1747907053633.031,-80,-32,-114
1747907053671.844,230660,1747907053652.875,-87,-36,-116
1747907053691.656,230718,1747907053672.781,-81,-36,-113
1747907053711.531,230732,1747907053692.594,-89,-30,-117
1747907053731.406,230773,1747907053712.469,-81,-32,-119
1747907053751.281,230841,1747907053732.312,-93,-32,-116
1747907053771.125,230875,1747907053752.219,-80,-34,-121
1747907053791.0,230931,1747907053772.063,-72,-40,-125
1747907053810.906,230993,1747907053791.906,-76,-41,-124
1747907053830.719,231063,1747907053811.844,-79,-36,-116
1747907053850.594,231146,1747907053831.688,-95,-31,-121
1747907053870.469,231237,1747907053851.531,-89,-31,-121
1747907053890.4368,231338,1747907053871.406,-76,-36,-122
1747907053910.156,231435,1747907053891.25,-87,-35,-114
1747907053930.031,231541,1747907053911.094,-77,-34,-121
1747907053949.906,231666,1747907053930.938,-80,-20,-121
1747907053969.75,231775,1747907053950.812,-80,-34,-128
1747907053989.594,231905,1747907053970.687,-80,-34,-121
1747907054009.437,232018,1747907053990.531,-88,-32,-127
1747907054029.313,232102,1747907054010.406,-77,-34,-116
1747907054049.188,232248,1747907054030.188,-82,-34,-125
1747907054069.031,232355,1747907054050.094,-85,-36,-122
1747907054088.906,232497,1747907054070.0,-75,-30,-121
1747907054108.75,232573,1747907054089.844,-79,-36,-121
1747907054128.625,232605,1747907054109.656,-84,-32,-125
1747907054148.469,232551,1747907054129.562,-81,-25,-121
1747907054168.344,232449,1747907054149.406,-80,-36,-126
1747907054188.188,232320,1747907054169.25,-69,-32,-122
1747907054208.063,232189,1747907054189.094,-80,-31,-120
1747907054227.906,232073,1747907054208.9692,-85,-36,-122
1747907054247.781,231978,1747907054228.844,-85,-21,-129
1747907054267.625,231929,1747907054248.688,-91,-31,-116
1747907054287.5,231884,1747907054268.563,-87,-42,-125
1747907054307.344,231852,1747907054288.406,-73,-41,-113
1747907054327.187,231841,1747907054308.281,-85,-29,-121
1747907054347.031,231879,1747907054328.125,-89,-30,-130
1747907054366.906,231919,1747907054347.969,-85,-30,-127
1747907054386.75,231966,1747907054367.813,-92,-32,-118
1747907054406.563,231966,1747907054387.687,-92,-32,-118
1747907054446.156,174012,1747907054427.344,-89,-32,-125
1747907054466.0,174050,1747907054447.25,-77,-35,-119
1747907054485.875,174066,1747907054467.094,-87,-39,-124
1747907054505.719,174091,1747907054486.969,-74,-41,-114
1747907054525.562,174131,1747907054506.781,-80,-43,-114
1747907054545.437,174172,1747907054526.656,-78,-38,-118
1747907054565.281,174217,1747907054546.5,-89,-39,-129
1747907054585.125,174295,1747907054566.375,-81,-48,-121
1747907054605.0,174321,1747907054586.219,-80,-37,-116
1747907054624.844,174399,1747907054606.063,-82,-37,-118
1747907054644.687,174472,1747907054625.938,-81,-41,-116
1747907054664.531,174544,1747907054645.812,-82,-38,-118
1747907054684.406,174621,1747907054665.625,-77,-37,-124
1747907054704.25,174704,1747907054685.469,-79,-40,-121
1747907054724.094,174782,1747907054705.344,-88,-37,-118
1747907054744.0,174865,1747907054725.188,-79,-37,-114
1747907054763.813,174950,1747907054745.094,-82,-37,-114
1747907054783.687,175036,1747907054764.875,-82,-40,-118
1747907054803.5,175133,1747907054784.781,-87,-33,-121
1747907054823.375,175226,1747907054804.594,-88,-33,-121
1747907054843.219,175300,1747907054824.469,-77,-37,-121
1747907054863.094,175369,1747907054844.312,-72,-37,-124
1747907054882.937,175391,1747907054864.156,-81,-45,-128
1747907054902.812,175353,1747907054884.063,-77,-40,-124
1747907054922.656,175297,1747907054903.875,-68,-37,-118
1747907054942.563,175227,1747907054923.719,-77,-37,-114
1747907054962.406,175153,1747907054943.625,-77,-33,-128
1747907054982.25,175074,1747907054963.469,-90,-28,-115
1747907055002.125,175039,1747907054983.313,-77,-36,-118
1747907055021.969,174997,1747907055003.219,-80,-34,-124
1747907055041.812,174973,1747907055023.031,-82,-39,-104
1747907055061.656,174982,1747907055042.906,-78,-41,-114
1747907055081.531,175007,1747907055062.75,-78,-33,-109
1747907055101.406,175039,1747907055082.687,-82,-34,-121
1747907055121.25,175080,1747907055102.469,-74,-33,-118
1747907055141.094,175101,1747907055122.344,-89,-36,-104
1747907055160.969,175135,1747907055142.188,-81,-40,-113
1747907055180.813,175167,1747907055162.031,-88,-41,-114
1747907055200.688,175195,1747907055181.906,-79,-37,-125
1747907055220.531,175219,1747907055201.75,-88,-33,-135
1747907055240.375,175245,1747907055221.594,-80,-37,-120
1747907055260.219,175292,1747907055241.469,-97,-49,-116
1747907055280.063,175333,1747907055261.312,-80,-37,-127
1747907055299.906,175368,1747907055281.156,-84,-40,-121
1747907055319.75,175438,1747907055301.0,-89,-41,-124
1747907055339.625,175488,1747907055320.813,-79,-39,-121
1747907055359.469,175551,1747907055340.688,-85,-36,-122
1747907055379.344,175624,1747907055360.562,-80,-40,-112
1747907055399.219,175690,1747907055380.406,-84,-37,-121
1747907055419.062,175773,1747907055400.281,-87,-39,-118
1747907055438.906,175839,1747907055420.125,-80,-35,-122
1747907055458.781,175942,1747907055440.031,-79,-37,-117
1747907055478.625,176010,1747907055459.844,-80,-37,-118
1747907055498.5,176089,1747907055479.719,-77,-37,-114
1747907055518.344,176180,1747907055499.594,-77,-40,-114
1747907055538.219,176265,1747907055519.469,-89,-36,-121
1747907055558.094,176348,1747907055539.281,-79,-26,-121
1747907055577.969,176440,1747907055559.188,-89,-36,-113
1747907055597.812,176530,1747907055579.031,-69,-40,-121
1747907055617.656,176564,1747907055598.906,-77,-35,-125
1747907055637.563,176572,1747907055618.719,-85,-40,-121
1747907055657.406,176519,1747907055638.594,-81,-33,-131
1747907055677.25,176461,1747907055658.469,-88,-37,-117
1747907055697.125,176419,1747907055678.375,-77,-34,-121
1747907055716.969,176330,1747907055698.187,-84,-41,-103
1747907055736.844,176285,1747907055718.031,-80,-37,-116
1747907055756.656,176234,1747907055737.906,-95,-38,-114
1747907055776.531,176234,1747907055757.719,-77,-39,-128
1747907055796.375,176219,1747907055777.594,-87,-34,-122
1747907055816.312,176236,1747907055797.469,-77,-40,-124
1747907055836.094,176252,1747907055817.375,-77,-39,-117
1747907055855.937,176287,1747907055837.188,-88,-37,-120
1747907055875.813,176333,1747907055857.031,-89,-36,-121
1747907055895.656,176354,1747907055876.875,-74,-37,-122
1747907055915.5,176391,1747907055896.75,-90,-34,-118
1747907055935.344,176419,1747907055916.594,-84,-41,-114
1747907055955.219,176438,1747907055936.375,-79,-37,-116
1747907055975.094,176480,1747907055956.281,-86,-36,-120
1747907055994.937,176501,1747907055976.156,-65,-33,-121
1747907056014.781,176545,1747907055996.031,-82,-38,-121
1747907056034.625,176569,1747907056015.844,-79,-40,-118
1747907056054.5,176618,1747907056035.656,-80,-34,-106
1747907056074.313,176666,1747907056055.562,-77,-41,-122
1747907056094.156,176741,1747907056075.438,-81,-45,-122
1747907056114.031,176795,1747907056095.25,-90,-37,-121
1747907056133.875,176866,1747907056115.125,-73,-34,-121
1747907056153.719,176909,1747907056134.937,-80,-35,-114
1747907056173.563,176975,1747907056154.844,-93,-39,-112
1747907056193.437,177081,1747907056174.625,-76,-37,-116
1747907056213.281,177146,1747907056194.5,-80,-37,-118
1747907056233.125,177216,1747907056214.375,-84,-34,-122
1747907056252.969,177284,1747907056234.219,-77,-39,-117
1747907056272.812,177347,1747907056254.062,-84,-36,-119
1747907056292.687,177446,1747907056273.875,-77,-36,-124
1747907056312.5,177509,1747907056293.75,-84,-36,-121
1747907056332.344,177574,1747907056313.625,-73,-27,-117
1747907056352.25,177585,1747907056333.437,-80,-37,-121
1747907056372.094,177553,1747907056353.313,-74,-37,-113
1747907056391.937,177522,1747907056373.156,-81,-23,-113
1747907056411.875,177443,1747907056393.0308,-84,-41,-120
1747907056431.625,177389,1747907056412.844,-80,-24,-130
1747907056451.5,177343,1747907056432.719,-80,-40,-129
1747907056471.344,177289,1747907056452.594,-84,-36,-121
1747907056491.188,177270,1747907056472.375,-77,-44,-131
1747907056511.063,177259,1747907056492.25,-79,-36,-119
1747907056530.906,177259,1747907056512.125,-88,-33,-122
1747907056550.75,177269,1747907056531.969,-81,-33,-121
1747907056570.594,177298,1747907056551.813,-80,-36,-127
1747907056590.438,177311,1747907056571.656,-81,-40,-114
1747907056610.313,177351,1747907056591.5,-72,-41,-119
1747907056630.187,177386,1747907056611.406,-88,-37,-144
1747907056650.031,177407,1747907056631.281,-82,-34,-118
1747907056669.875,177403,1747907056651.094,-72,-39,-113
1747907056689.75,177424,1747907056670.937,-84,-36,-118
1747907056709.625,177448,1747907056690.812,-77,-33,-122
1747907056729.469,177486,1747907056710.6882,-80,-32,-117
1747907056749.344,177518,1747907056730.563,-77,-37,-115
1747907056769.188,177550,1747907056750.406,-89,-34,-114
1747907056789.062,177590,1747907056770.281,-77,-33,-128
1747907056808.906,177627,1747907056790.156,-87,-38,-115
1747907056828.781,177694,1747907056810.0,-81,-36,-122
1747907056848.625,177738,1747907056829.875,-88,-37,-118
1747907056868.5,177791,1747907056849.719,-77,-38,-119
1747907056888.344,177869,1747907056869.625,-76,-33,-123
1747907056908.219,177920,1747907056889.438,-73,-40,-121
1747907056928.094,178007,1747907056909.281,-80,-40,-120
1747907056947.906,178054,1747907056929.187,-88,-36,-124
1747907056967.781,178113,1747907056949.0,-88,-38,-122
1747907056987.656,178199,1747907056968.875,-79,-39,-121
1747907057007.5,178252,1747907056988.719,-80,-41,-121
1747907057027.344,178304,1747907057008.594,-77,-41,-120
1747907057047.188,178307,1747907057028.469,-80,-40,-115
1747907057067.062,178269,1747907057048.25,-80,-49,-122
1747907057086.906,178212,1747907057068.125,-73,-41,-116
1747907057106.75,178151,1747907057087.969,-84,-37,-117
1747907057126.625,178060,1747907057107.844,-80,-36,-129
1747907057146.4692,178029,1747907057127.719,-86,-34,-124
1747907057166.312,177973,1747907057147.5,-77,-35,-129
1747907057186.188,177925,1747907057167.406,-88,-37,-124
1747907057206.031,177918,1747907057187.281,-89,-33,-116
1747907057225.844,177926,1747907057207.094,-79,-37,-114
1747907057245.75,177938,1747907057226.938,-72,-42,-124
1747907057265.594,177954,1747907057246.813,-89,-34,-116
1747907057285.406,177978,1747907057266.625,-77,-33,-121
1747907057305.281,177994,1747907057286.5,-81,-25,-124
1747907057325.125,178039,1747907057306.344,-80,-38,-125
1747907057345.0,178036,1747907057326.25,-85,-35,-121
1747907057364.813,178056,1747907057346.063,-85,-36,-114
1747907057384.813,178075,1747907057365.875,-77,-42,-116
1747907057404.531,178112,1747907057385.75,-81,-21,-127
1747907057424.406,178131,1747907057405.594,-77,-39,-113
1747907057444.25,178143,1747907057425.438,-80,-37,-117
1747907057464.094,178177,1747907057445.312,-95,-47,-129
1747907057483.969,178225,1747907057465.187,-77,-37,-120
1747907057503.812,178277,1747907057485.063,-87,-36,-116
1747907057523.656,178313,1747907057504.875,-80,-37,-132
1747907057543.531,178351,1747907057524.75,-80,-37,-121
1747907057563.375,178423,1747907057544.594,-84,-37,-121
1747907057583.25,178500,1747907057564.469,-81,-33,-117
1747907057603.094,178545,1747907057584.344,-89,-34,-121
1747907057622.937,178633,1747907057604.188,-87,-36,-116
1747907057642.813,178706,1747907057624.0,-77,-34,-114
1747907057662.688,178764,1747907057643.906,-92,-41,-119
1747907057682.5,178832,1747907057663.75,-72,-39,-125
1747907057702.344,178905,1747907057683.594,-79,-36,-116
1747907057722.25,178878,1747907057703.438,-77,-36,-124
1747907057742.063,178858,1747907057723.281,-89,-24,-118
1747907057761.906,178798,1747907057743.156,-81,-37,-121
1747907057781.781,178716,1747907057763.0,-77,-36,-116
1747907057801.625,178670,1747907057782.844,-88,-41,-107
1747907057821.5,178589,1747907057802.75,-89,-33,-113
1747907057841.313,178530,1747907057822.562,-77,-40,-117
1747907057861.187,178500,1747907057842.406,-84,-35,-125
1747907057881.062,178448,1747907057862.25,-76,-34,-116
1747907057900.938,178420,1747907057882.156,-87,-36,-121
1747907057920.75,178428,1747907057902.031,-82,-38,-124
1747907057940.594,178437,1747907057921.844,-84,-37,-118
1747907057960.469,178442,1747907057941.688,-84,-36,-120
1747907057980.344,178462,1747907057961.563,-84,-37,-117
1747907058000.1882,178477,1747907057981.406,-77,-41,-133
1747907058020.062,178490,1747907058001.281,-74,-37,-122
1747907058039.906,178512,1747907058021.125,-79,-39,-121
1747907058059.781,178524,1747907058041.0,-81,-37,-121
1747907058079.625,178537,1747907058060.844,-69,-45,-121
1747907058099.5,178554,1747907058080.719,-80,-33,-121
1747907058119.437,178583,1747907058100.594,-80,-37,-121
1747907058139.25,178612,1747907058120.438,-80,-32,-121
1747907058159.094,178652,1747907058140.344,-78,-33,-124
1747907058178.938,178685,1747907058160.156,-84,-39,-116
1747907058198.812,178739,1747907058180.0,-77,-40,-120
1747907058218.75,178792,1747907058199.844,-88,-39,-117
1747907058238.469,178833,1747907058219.75,-80,-32,-120
1747907058258.375,178909,1747907058239.625,-89,-34,-118
1747907058278.219,178968,1747907058259.437,-76,-37,-121
1747907058298.094,179015,1747907058279.281,-80,-37,-121
1747907058317.938,179067,1747907058299.156,-89,-36,-113
1747907058337.844,179133,1747907058319.0,-77,-39,-124
1747907058357.687,179219,1747907058338.906,-80,-37,-114
1747907058377.562,179265,1747907058358.75,-85,-37,-121
1747907058397.375,179270,1747907058378.625,-78,-37,-121
1747907058417.219,179223,1747907058398.469,-91,-42,-121
1747907058437.094,179156,1747907058418.281,-89,-37,-121
1747907058456.937,179059,1747907058438.188,-80,-37,-121
1747907058476.781,178967,1747907058458.0,-92,-33,-127
1747907058496.656,178876,1747907058477.875,-80,-34,-116
1747907058516.531,178811,1747907058497.75,-92,-34,-114
1747907058536.406,178768,1747907058517.594,-79,-40,-129
1747907058556.25,178807,1747907058537.469,-89,-37,-121
1747907058576.094,178962,1747907058557.313,-83,-25,-122
1747907058595.969,179157,1747907058577.156,-86,-40,-120
1747907058615.844,179376,1747907058597.062,-92,-34,-121
1747907058635.687,179580,1747907058616.906,-77,-36,-124
1747907058655.562,179760,1747907058636.75,-84,-33,-116
1747907058675.438,179900,1747907058656.625,-92,-33,-121
1747907058695.281,179964,1747907058676.5,-87,-33,-116
1747907058715.25,180006,1747907058696.344,-80,-35,-131
1747907058735.0,180028,1747907058716.313,-92,-37,-114
1747907058754.875,180009,1747907058736.063,-90,-36,-114
1747907058774.719,180013,1747907058755.969,-80,-39,-136
1747907058794.562,180055,1747907058775.812,-89,-33,-122
1747907058814.469,180095,1747907058795.656,-74,-32,-119
1747907058834.344,180191,1747907058815.562,-82,-36,-117
1747907058854.156,180294,1747907058835.406,-88,-37,-116
1747907058874.031,180389,1747907058855.281,-87,-32,-132
1747907058893.906,180435,1747907058875.125,-86,-41,-127
1747907058913.75,180499,1747907058894.969,-96,-37,-116
1747907058933.594,180525,1747907058914.844,-84,-41,-108
1747907058953.469,180522,1747907058934.687,-90,-42,-125
1747907058973.312,180568,1747907058954.563,-80,-41,-116
1747907058993.219,180734,1747907058974.5,-84,-34,-105
1747907059013.031,180826,1747907058994.25,-79,-45,-122
1747907059032.906,180819,1747907059014.156,-97,-21,-103
1747907059052.781,180812,1747907059034.0,-97,-25,-121
1747907059072.656,180813,1747907059053.875,-89,-36,-123
1747907059092.5,180791,1747907059073.719,-81,-33,-127
1747907059112.375,180747,1747907059093.594,-85,-37,-121
1747907059132.219,180714,1747907059113.437,-80,-36,-120
1747907059152.094,180729,1747907059133.281,-97,-33,-109
1747907059171.938,180777,1747907059153.125,-77,-32,-125
1747907059191.75,180903,1747907059173.031,-89,-33,-109
1747907059211.625,181080,1747907059192.844,-80,-41,-113
1747907059231.469,181295,1747907059212.688,-88,-33,-116
1747907059251.281,181490,1747907059232.563,-89,-33,-119
1747907059271.156,181709,1747907059252.375,-79,-36,-128
1747907059291.0,181873,1747907059272.25,-79,-33,-120
1747907059310.844,182046,1747907059292.062,-84,-33,-115
1747907059330.719,182214,1747907059311.969,-91,-29,-114
1747907059350.563,182387,1747907059331.781,-90,-33,-114
1747907059370.406,182512,1747907059351.656,-81,-37,-121
1747907059390.281,182623,1747907059371.5,-79,-29,-120
1747907059410.156,182713,1747907059391.375,-93,-33,-123
1747907059429.969,182815,1747907059411.219,-89,-29,-121
1747907059449.875,182912,1747907059431.062,-100,-29,-122
1747907059469.719,183045,1747907059450.906,-87,-33,-114
1747907059489.562,183168,1747907059470.813,-89,-29,-109
1747907059509.437,183263,1747907059490.625,-87,-32,-119
1747907059529.281,183353,1747907059510.5,-90,-36,-108
1747907059549.156,183426,1747907059530.375,-91,-29,-121
1747907059569.0,183494,1747907059550.219,-89,-33,-120
1747907059588.844,183573,1747907059570.094,-95,-32,-116
1747907059608.719,183635,1747907059589.906,-101,-39,-129
1747907059628.563,183696,1747907059609.75,-88,-33,-115
1747907059648.406,183748,1747907059629.656,-89,-29,-121
1747907059668.25,183819,1747907059649.469,-95,-29,-120
1747907059688.125,183903,1747907059669.344,-84,-28,-116
1747907059707.969,183976,1747907059689.188,-84,-29,-113
1747907059727.844,184067,1747907059709.094,-86,-33,-113
1747907059747.719,184142,1747907059728.906,-87,-29,-116
1747907059767.562,184231,1747907059748.781,-97,-26,-121
1747907059787.438,184285,1747907059768.625,-83,-25,-116
1747907059807.281,184305,1747907059788.5,-90,-26,-121
1747907059827.125,184279,1747907059808.375,-81,-33,-113
1747907059846.969,184262,1747907059828.188,-97,-33,-119
1747907059866.875,184158,1747907059848.031,-101,-33,-116
1747907059886.688,184066,1747907059867.906,-97,-16,-121
1747907059906.531,183985,1747907059887.75,-100,-33,-114
1747907059926.375,183983,1747907059907.594,-98,-33,-114
1747907059946.25,184003,1747907059927.438,-93,-33,-110
1747907059966.094,184037,1747907059947.2808,-88,-37,-116
1747907059985.938,184088,1747907059967.187,-93,-33,-110
1747907060005.781,184166,1747907059987.0,-98,-33,-117
1747907060025.656,184238,1747907060006.875,-88,-33,-110
1747907060045.5,184319,1747907060026.719,-95,-33,-114
1747907060065.344,184359,1747907060046.562,-97,-29,-113
1747907060085.188,184409,1747907060066.406,-92,-34,-114
1747907060105.031,184437,1747907060086.281,-101,-33,-114
1747907060124.906,184494,1747907060106.125,-88,-33,-109
1747907060144.719,184564,1747907060126.0,-97,-33,-108
1747907060164.594,184633,1747907060145.812,-88,-33,-113
1747907060184.438,184708,1747907060165.656,-89,-33,-112
1747907060204.344,184762,1747907060185.5,-92,-33,-106
1747907060224.125,184827,1747907060205.344,-98,-16,-111
1747907060244.0,184867,1747907060225.25,-92,-33,-113
1747907060263.844,184923,1747907060245.062,-93,-34,-120
1747907060283.719,184994,1747907060264.906,-101,-33,-96
1747907060303.562,185072,1747907060284.813,-91,-32,-125
1747907060323.375,185121,1747907060304.625,-93,-29,-113
1747907060343.281,185184,1747907060324.469,-90,-33,-117
1747907060363.156,185241,1747907060344.375,-97,-26,-114
1747907060383.0,185268,1747907060364.219,-88,-16,-129
1747907060402.812,185312,1747907060384.094,-88,-33,-113
1747907060422.656,185366,1747907060403.906,-83,-26,-115
1747907060442.5,185445,1747907060423.719,-87,-32,-113
1747907060462.437,185495,1747907060443.562,-96,-33,-115
1747907060482.187,185531,1747907060463.531,-99,-29,-108
1747907060502.031,185515,1747907060483.281,-84,-33,-114
1747907060521.906,185488,1747907060503.125,-98,-33,-122
1747907060541.75,185448,1747907060522.969,-87,-40,-113
1747907060561.562,185436,1747907060542.813,-90,-16,-117
1747907060581.406,185442,1747907060562.625,-88,-33,-113
1747907060601.281,185458,1747907060582.469,-95,-33,-114
1747907060621.125,185469,1747907060602.375,-93,-33,-104
1747907060641.0,185514,1747907060622.281,-95,-33,-113
1747907060660.844,185533,1747907060642.094,-89,-33,-119
1747907060680.687,185567,1747907060661.906,-98,-33,-121
1747907060700.531,185591,1747907060681.75,-87,-36,-113
1747907060720.344,185646,1747907060701.656,-84,-29,-120
1747907060740.25,185670,1747907060721.406,-88,-29,-112
1747907060760.094,185682,1747907060741.313,-88,-29,-113
1747907060779.938,185727,1747907060761.156,-95,-29,-122
1747907060799.813,185734,1747907060781.031,-93,-33,-122
1747907060819.656,185746,1747907060800.906,-85,-33,-115
1747907060839.5,185765,1747907060820.781,-89,-32,-113
1747907060859.375,185808,1747907060840.594,-104,-29,-125
1747907060879.188,185871,1747907060860.437,-89,-37,-112
1747907060899.063,185886,1747907060880.25,-77,-24,-114
1747907060918.906,185899,1747907060900.125,-100,-33,-109
1747907060938.75,185925,1747907060920.0,-83,-36,-114
1747907060958.594,185949,1747907060939.844,-84,-33,-128
1747907060978.438,185994,1747907060959.687,-98,-29,-121
1747907060998.312,186064,1747907060979.5,-97,-26,-109
1747907061018.187,186117,1747907060999.406,-97,-29,-121
1747907061038.0,186194,1747907061019.25,-84,-34,-123
1747907061057.875,186252,1747907061039.094,-85,-33,-120
1747907061077.75,186323,1747907061058.969,-90,-25,-113
1747907061097.594,186386,1747907061078.813,-87,-33,-116
1747907061117.4368,186433,1747907061098.656,-96,-33,-118
1747907061137.281,186418,1747907061118.5,-88,-29,-109
1747907061157.125,186370,1747907061138.375,-96,-33,-113
1747907061177.0,186244,1747907061158.187,-84,-36,-113
1747907061196.844,186131,1747907061178.094,-100,-33,-125
1747907061216.687,186001,1747907061197.906,-85,-33,-114
1747907061236.563,185904,1747907061217.781,-84,-29,-121
1747907061256.406,185830,1747907061237.625,-88,-29,-116
1747907061276.25,185784,1747907061257.5,-100,-17,-121
1747907061296.125,185745,1747907061277.344,-87,-20,-121
1747907061316.0,185728,1747907061297.188,-97,-29,-111
1747907061335.844,185759,1747907061317.062,-86,-18,-120
1747907061355.687,185756,1747907061336.906,-93,-25,-106
1747907061375.562,185745,1747907061356.781,-90,-33,-116
1747907061395.375,185729,1747907061376.625,-88,-33,-110
1747907061415.281,185748,1747907061396.5,-100,-29,-113
1747907061435.125,185733,1747907061416.344,-87,-33,-106
1747907061454.937,185737,1747907061436.188,-95,-33,-110
1747907061474.812,185759,1747907061456.031,-97,-33,-121
1747907061494.781,185765,1747907061475.906,-97,-33,-114
1747907061514.5,185770,1747907061495.875,-103,-33,-110
1747907061534.375,185781,1747907061515.594,-87,-33,-121
1747907061554.25,185789,1747907061535.469,-96,-30,-112
1747907061574.125,185807,1747907061555.313,-93,-43,-113
1747907061593.9382,185847,1747907061575.187,-95,-26,-113
1747907061613.812,185873,1747907061595.031,-85,-33,-116
1747907061633.687,185895,1747907061614.906,-98,-37,-122
1747907061653.531,185924,1747907061634.7808,-87,-29,-116
1747907061673.375,185956,1747907061654.625,-95,-29,-116
1747907061693.219,185989,1747907061674.469,-84,-29,-121
1747907061713.094,186035,1747907061694.281,-99,-33,-113
1747907061732.937,186084,1747907061714.188,-97,-33,-117
1747907061752.781,186140,1747907061734.031,-95,-33,-116
1747907061772.625,186196,1747907061753.875,-87,-25,-111
1747907061792.469,186223,1747907061773.719,-85,-33,-116
1747907061812.344,186195,1747907061793.563,-96,-29,-114
1747907061832.219,186128,1747907061813.406,-90,-33,-113
1747907061852.031,186020,1747907061833.312,-90,-33,-109
1747907061871.875,185926,1747907061853.094,-92,-31,-117
1747907061891.75,185835,1747907061872.937,-100,-33,-113
1747907061911.531,185760,1747907061892.813,-97,-33,-112
1747907061931.406,185714,1747907061912.625,-97,-33,-112
1747907061951.25,185692,1747907061932.469,-93,-33,-110
1747907061971.125,185660,1747907061952.344,-88,-33,-116
1747907061990.969,185610,1747907061972.219,-97,-29,-116
1747907062010.812,185612,1747907061992.063,-89,-33,-116
1747907062030.688,185605,1747907062011.875,-85,-29,-112
1747907062050.531,185604,1747907062031.75,-90,-33,-114
1747907062070.344,185577,1747907062051.594,-97,-25,-108
1747907062090.219,185605,1747907062071.5,-88,-32,-121
1747907062110.063,185613,1747907062091.25,-93,-33,-111
1747907062129.906,185599,1747907062111.156,-89,-33,-121
1747907062149.75,185597,1747907062131.0,-96,-33,-114
1747907062169.687,185614,1747907062150.844,-84,-26,-113
1747907062189.469,185615,1747907062170.75,-90,-33,-114
1747907062209.344,185615,1747907062190.531,-87,-31,-113
1747907062229.188,185658,1747907062210.437,-87,-31,-116
1747907062249.031,185709,1747907062230.281,-80,-35,-114
1747907062268.906,185739,1747907062250.094,-95,-33,-116
1747907062288.75,185788,1747907062269.969,-80,-33,-116
1747907062308.594,185846,1747907062289.844,-96,-33,-124
1747907062328.469,185909,1747907062309.719,-89,-33,-111
1747907062348.312,185954,1747907062329.531,-97,-29,-117
1747907062368.156,185993,1747907062349.375,-90,-33,-121
1747907062388.0,186087,1747907062369.219,-89,-25,-115
1747907062407.844,186117,1747907062389.094,-93,-33,-113
1747907062427.7192,186174,1747907062408.906,-86,-33,-114
1747907062447.562,186229,1747907062428.781,-85,-29,-117
1747907062467.406,186303,1747907062448.625,-94,-33,-114
1747907062487.25,186323,1747907062468.469,-89,-25,-113
1747907062507.094,186324,1747907062488.312,-89,-33,-117
1747907062526.937,186283,1747907062508.156,-85,-16,-128
1747907062546.812,186177,1747907062528.031,-88,-33,-110
1747907062566.625,186108,1747907062547.875,-89,-33,-125
1747907062586.5,186025,1747907062567.719,-109,-23,-114
1747907062606.375,185933,1747907062587.562,-98,-33,-117
1747907062626.219,185890,1747907062607.438,-87,-33,-116
1747907062646.031,185849,1747907062627.281,-104,-33,-120
1747907062665.938,185817,1747907062647.125,-96,-26,-114
1747907062685.75,185807,1747907062667.0,-102,-20,-125
1747907062705.625,185812,1747907062686.781,-89,-33,-125
1747907062725.437,185818,1747907062706.688,-96,-29,-110
1747907062745.281,185835,1747907062726.531,-84,-25,-113
1747907062765.156,185827,1747907062746.344,-96,-33,-113
1747907062785.0,185824,1747907062766.219,-98,-33,-109
1747907062804.812,185852,1747907062786.063,-85,-33,-116
1747907062824.656,185839,1747907062805.906,-95,-33,-113
1747907062844.563,185856,1747907062825.75,-93,-29,-114
1747907062864.375,185865,1747907062845.625,-89,-33,-110
1747907062884.187,185874,1747907062865.437,-84,-29,-116
1747907062904.031,185886,1747907062885.281,-98,-33,-110
1747907062923.906,185916,1747907062905.125,-97,-33,-116
1747907062943.781,185953,1747907062924.969,-95,-29,-113
1747907062963.594,185981,1747907062944.844,-87,-28,-113
1747907062983.469,186008,1747907062964.688,-92,-33,-114
1747907063003.344,186052,1747907062984.531,-89,-33,-118
1747907063023.156,186072,1747907063004.406,-90,-36,-120
1747907063043.0,186132,1747907063024.25,-88,-26,-125
1747907063062.906,186192,1747907063044.125,-86,-33,-116
1747907063082.719,186246,1747907063063.906,-95,-24,-127
1747907063102.562,186299,1747907063083.781,-93,-33,-113
1747907063122.406,186338,1747907063103.656,-89,-29,-115
1747907063142.219,186384,1747907063123.5,-93,-33,-116
1747907063162.0942,186421,1747907063143.281,-98,-33,-114
1747907063182.0,186473,1747907063163.125,-84,-33,-119
1747907063201.813,186518,1747907063183.063,-88,-33,-116
1747907063221.625,186506,1747907063202.875,-97,-29,-122
1747907063241.5,186485,1747907063222.687,-89,-33,-113
1747907063261.344,186395,1747907063242.563,-97,-34,-113
1747907063281.219,186301,1747907063262.406,-100,-33,-119
1747907063301.031,186219,1747907063282.312,-88,-27,-124
1747907063320.875,186153,1747907063302.125,-90,-41,-127
1747907063340.75,186091,1747907063321.969,-88,-26,-118
1747907063360.594,186046,1747907063341.813,-100,-29,-110
1747907063380.438,186050,1747907063361.688,-89,-29,-117
1747907063400.313,186054,1747907063381.5,-93,-33,-112
1747907063420.156,186040,1747907063401.375,-85,-29,-112
1747907063440.031,186035,1747907063421.25,-98,-33,-110
1747907063459.844,186024,1747907063441.094,-90,-33,-114
1747907063479.688,186026,1747907063460.938,-94,-29,-112
1747907063499.563,186044,1747907063480.781,-89,-33,-113
1747907063519.406,186050,1747907063500.656,-84,-33,-110
1747907063539.25,186025,1747907063520.5,-97,-36,-109
1747907063559.094,186024,1747907063540.344,-84,-25,-114
1747907063578.938,186021,1747907063560.187,-93,-29,-113
1747907063598.813,186011,1747907063580.0,-81,-36,-113
1747907063618.625,185996,1747907063599.875,-100,-33,-111
1747907063638.469,186018,1747907063619.719,-87,-33,-113
1747907063658.313,186043,1747907063639.563,-88,-33,-122
1747907063678.188,186065,1747907063659.406,-98,-29,-109
1747907063698.0,186089,1747907063679.25,-85,-33,-110
1747907063717.844,186135,1747907063699.063,-89,-33,-128
1747907063737.719,186185,1747907063718.906,-89,-27,-114
1747907063757.5632,186222,1747907063738.812,-95,-29,-114
1747907063777.375,186247,1747907063758.625,-97,-33,-109
1747907063797.25,186285,1747907063778.5,-82,-33,-116
1747907063817.094,186315,1747907063798.344,-84,-26,-116
1747907063836.969,186357,1747907063818.188,-94,-29,-114
1747907063856.813,186389,1747907063838.062,-90,-31,-117
1747907063876.688,186433,1747907063857.906,-96,-25,-121
1747907063896.5,186460,1747907063877.719,-84,-28,-114
1747907063916.375,186502,1747907063897.594,-89,-33,-111
1747907063936.188,186494,1747907063917.469,-97,-36,-114
1747907063956.031,186416,1747907063937.281,-87,-33,-113
1747907063975.906,186338,1747907063957.125,-101,-29,-113
1747907063995.75,186250,1747907063976.969,-89,-33,-112
1747907064015.594,186167,1747907063996.813,-97,-33,-116
1747907064035.438,186098,1747907064016.656,-89,-33,-114
1747907064055.281,186034,1747907064036.469,-93,-33,-120
1747907064075.156,185983,1747907064056.344,-87,-29,-113
1747907064094.969,185952,1747907064076.219,-100,-33,-114
1747907064114.813,185936,1747907064096.031,-89,-28,-112
1747907064134.656,185926,1747907064115.906,-88,-33,-114
1747907064154.531,185944,1747907064135.719,-93,-29,-113
1747907064174.406,185947,1747907064155.594,-97,-25,-114
1747907064194.313,185927,1747907064175.469,-85,-33,-114
1747907064214.125,185951,1747907064195.406,-95,-33,-109
1747907064233.938,185923,1747907064215.125,-100,-33,-124
1747907064253.812,185914,1747907064235.0,-100,-29,-116
1747907064273.625,185906,1747907064254.906,-97,-33,-119
1747907064293.469,185895,1747907064274.719,-90,-27,-116
1747907064313.344,185919,1747907064294.562,-85,-28,-116
1747907064333.219,185924,1747907064314.406,-97,-33,-120
1747907064353.062,185948,1747907064334.281,-92,-33,-106
1747907064372.875,185973,1747907064354.125,-96,-33,-110
1747907064392.75,185979,1747907064373.969,-82,-25,-112
1747907064412.688,186025,1747907064393.844,-93,-25,-114
1747907064432.437,186017,1747907064413.687,-85,-16,-121
1747907064452.312,186035,1747907064433.563,-103,-33,-116
1747907064472.188,186046,1747907064453.375,-88,-34,-116
1747907064492.031,186069,1747907064473.25,-98,-33,-108
1747907064511.875,186124,1747907064493.094,-87,-33,-106
1747907064531.75,186170,1747907064512.969,-97,-33,-108
1747907064551.562,186214,1747907064532.844,-90,-26,-121
1747907064571.438,186274,1747907064552.625,-96,-29,-118
1747907064591.25,186300,1747907064572.531,-87,-33,-110
1747907064611.125,186310,1747907064592.375,-97,-33,-113
1747907064630.969,186291,1747907064612.219,-93,-33,-112
1747907064650.844,186212,1747907064632.031,-93,-33,-110
1747907064670.656,186117,1747907064651.937,-88,-33,-121
1747907064690.531,186040,1747907064671.781,-92,-33,-116
1747907064710.344,185952,1747907064691.594,-100,-28,-114
1747907064730.219,185880,1747907064711.438,-89,-29,-121
1747907064750.063,185820,1747907064731.281,-97,-29,-110
1747907064769.906,185773,1747907064751.156,-89,-29,-112
1747907064789.781,185745,1747907064771.0,-89,-33,-114
1747907064809.625,185728,1747907064790.844,-85,-25,-113
1747907064829.437,185721,1747907064810.719,-97,-30,-112
1747907064849.313,185710,1747907064830.5308,-92,-33,-113
1747907064869.219,185716,1747907064850.375,-87,-30,-121
1747907064889.031,185729,1747907064870.281,-101,-29,-109
1747907064908.844,185735,1747907064890.063,-97,-33,-121
1747907064928.688,185718,1747907064909.938,-89,-33,-121
1747907064948.531,185709,1747907064929.781,-97,-36,-113
1747907064968.406,185673,1747907064949.625,-87,-30,-117
1747907064988.281,185657,1747907064969.5,-100,-28,-116
1747907065008.094,185667,1747907064989.344,-84,-41,-113
1747907065027.969,185687,1747907065009.156,-97,-33,-112
1747907065047.813,185698,1747907065029.031,-89,-33,-110
1747907065067.656,185720,1747907065048.844,-97,-33,-128
1747907065087.5,185734,1747907065068.75,-89,-33,-119
1747907065107.344,185748,1747907065088.563,-95,-33,-114
1747907065127.219,185786,1747907065108.437,-85,-29,-114
1747907065147.063,185830,1747907065128.312,-95,-26,-122
1747907065166.875,185870,1747907065148.125,-93,-33,-105
1747907065186.719,185929,1747907065167.969,-97,-33,-116
1747907065206.656,185966,1747907065187.813,-97,-33,-113
1747907065226.469,186000,1747907065207.719,-98,-26,-116
1747907065246.25,186049,1747907065227.5,-99,-28,-117
1747907065266.125,186085,1747907065247.375,-88,-29,-110
1747907065285.969,186116,1747907065267.219,-97,-36,-116
1747907065305.813,186105,1747907065287.031,-96,-25,-113
1747907065325.594,186056,1747907065306.875,-89,-33,-113
1747907065345.469,185980,1747907065326.719,-89,-32,-120
1747907065365.312,185865,1747907065346.531,-89,-29,-113
1747907065385.156,185777,1747907065366.406,-81,-33,-121
1747907065405.0,185682,1747907065386.25,-91,-29,-112
1747907065424.813,185600,1747907065406.125,-89,-33,-111
1747907065444.656,185559,1747907065425.906,-89,-29,-113
1747907065464.531,185519,1747907065445.75,-97,-33,-116
1747907065484.344,185488,1747907065465.594,-85,-33,-116
1747907065504.156,185503,1747907065485.406,-85,-37,-111
1747907065524.0,185488,1747907065505.219,-93,-33,-113
1747907065543.875,185481,1747907065525.094,-95,-33,-113
1747907065563.687,185451,1747907065544.938,-96,-33,-114
1747907065583.5,185456,1747907065564.781,-92,-29,-121
1747907065603.344,185425,1747907065584.594,-97,-34,-114
1747907065623.219,185427,1747907065604.406,-97,-25,-116
1747907065643.062,185416,1747907065624.281,-92,-33,-109
1747907065662.875,185439,1747907065644.125,-85,-34,-113
1747907065682.719,185457,1747907065663.969,-97,-33,-96
1747907065702.531,185462,1747907065683.781,-89,-33,-110
1747907065722.375,185481,1747907065703.594,-100,-33,-110
1747907065742.188,185485,1747907065723.469,-89,-29,-125
1747907065762.062,185513,1747907065743.313,-89,-36,-113
1747907065781.875,185529,1747907065763.125,-97,-33,-128
1747907065801.75,185544,1747907065783.0,-90,-26,-127
1747907065821.594,185575,1747907065802.812,-95,-28,-113
1747907065841.406,185602,1747907065822.687,-97,-21,-114
1747907065861.281,185664,1747907065842.5,-93,-18,-113
1747907065881.094,185712,1747907065862.344,-89,-33,-112
1747907065900.969,185714,1747907065882.187,-81,-34,-113
1747907065920.781,185756,1747907065902.031,-84,-33,-116
1747907065940.625,185792,1747907065921.875,-98,-33,-113
1747907065960.469,185824,1747907065941.719,-95,-16,-118
1747907065980.344,185831,1747907065961.563,-97,-29,-119
1747907066000.156,185829,1747907065981.406,-100,-33,-112
1747907066020.031,185772,1747907066001.281,-89,-28,-129
1747907066039.875,185653,1747907066021.125,-98,-33,-113
1747907066059.75,185537,1747907066040.969,-88,-33,-113
1747907066079.563,185458,1747907066060.844,-100,-27,-114
1747907066099.438,185347,1747907066080.656,-89,-29,-112
1747907066119.281,185264,1747907066100.5,-98,-33,-113
1747907066139.156,185196,1747907066120.344,-78,-33,-113
1747907066159.0,185129,1747907066140.25,-95,-35,-118
1747907066178.844,185089,1747907066160.125,-92,-29,-115
1747907066198.719,185078,1747907066179.906,-97,-17,-119
1747907066218.594,185044,1747907066199.781,-89,-25,-114
1747907066238.375,185035,1747907066219.625,-69,-36,-125
1747907066258.25,185033,1747907066239.469,-99,-33,-121
1747907066278.094,185009,1747907066259.312,-89,-33,-118
1747907066297.937,184989,1747907066279.187,-96,-27,-120
1747907066317.781,184994,1747907066299.031,-88,-33,-116
1747907066337.625,184989,1747907066318.906,-94,-36,-113
1747907066357.5,184987,1747907066338.719,-97,-36,-129
1747907066377.344,185002,1747907066358.562,-84,-33,-114
1747907066397.156,185010,1747907066378.406,-93,-33,-114
1747907066417.031,185013,1747907066398.281,-90,-33,-114
1747907066436.906,185053,1747907066418.125,-100,-28,-121
1747907066456.719,185061,1747907066437.969,-95,-33,-114
1747907066476.562,185072,1747907066457.781,-81,-33,-116
1747907066496.437,185112,1747907066477.656,-88,-34,-111
1747907066516.281,185145,1747907066497.5,-102,-33,-113
1747907066536.156,185173,1747907066517.344,-89,-21,-121
1747907066555.969,185217,1747907066537.219,-97,-29,-116
1747907066575.812,185241,1747907066557.062,-102,-29,-116
1747907066595.687,185272,1747907066576.906,-98,-33,-119
1747907066615.531,185314,1747907066596.781,-93,-33,-113
1747907066635.406,185344,1747907066616.625,-93,-29,-120
1747907066655.219,185391,1747907066636.5,-85,-26,-108
1747907066675.094,185405,1747907066656.313,-93,-33,-113
1747907066694.937,185425,1747907066676.156,-85,-32,-129
1747907066714.781,185374,1747907066696.0,-101,-33,-113
1747907066734.594,185294,1747907066715.875,-87,-33,-113
1747907066754.437,185180,1747907066735.656,-95,-33,-118
1747907066774.312,185070,1747907066755.5,-95,-34,-110
1747907066794.156,184948,1747907066775.375,-98,-34,-110
1747907066813.969,184870,1747907066795.219,-85,-33,-110
1747907066833.844,184779,1747907066815.031,-95,-29,-114
1747907066853.687,184744,1747907066834.906,-100,-33,-118
1747907066873.531,184708,1747907066854.75,-97,-29,-115
1747907066893.344,184695,1747907066874.625,-93,-33,-116
1747907066913.219,184662,1747907066894.469,-97,-35,-114
1747907066933.063,184661,1747907066914.281,-84,-29,-112
1747907066952.9368,184628,1747907066934.156,-92,-29,-114
1747907066972.781,184625,1747907066954.0,-88,-33,-116
1747907066992.625,184606,1747907066973.875,-95,-33,-114
1747907067012.469,184584,1747907066993.687,-84,-29,-113
1747907067032.344,184584,1747907067013.531,-100,-33,-127
1747907067052.156,184565,1747907067033.438,-97,-33,-120
1747907067072.0,184569,1747907067053.25,-89,-29,-118
1747907067091.875,184558,1747907067073.094,-89,-33,-113
1747907067111.719,184544,1747907067092.906,-89,-33,-113
1747907067131.531,184536,1747907067112.813,-88,-33,-113
1747907067151.375,184543,1747907067132.656,-96,-36,-113
1747907067171.313,184563,1747907067152.469,-88,-29,-117
1747907067191.125,184578,1747907067172.375,-90,-25,-114
1747907067210.938,184630,1747907067192.156,-84,-34,-119
1747907067230.781,184639,1747907067212.031,-97,-33,-113
1747907067250.625,184684,1747907067231.844,-82,-36,-121
1747907067270.5,184714,1747907067251.719,-100,-33,-112
1747907067290.344,184757,1747907067271.562,-89,-33,-113
1747907067310.187,184801,1747907067291.406,-96,-37,-121
1747907067330.031,184835,1747907067311.25,-88,-33,-110
1747907067349.875,184889,1747907067331.094,-93,-27,-114
1747907067369.75,184904,1747907067350.937,-96,-29,-112
1747907067389.563,184947,1747907067370.781,-88,-33,-121
1747907067409.406,184910,1747907067390.656,-87,-29,-114
1747907067429.281,184855,1747907067410.531,-89,-29,-113
1747907067449.125,184758,1747907067430.375,-89,-34,-114
1747907067468.9382,184652,1747907067450.219,-92,-33,-114
1747907067488.812,184539,1747907067470.031,-95,-33,-113
1747907067508.656,184450,1747907067489.906,-87,-29,-124
1747907067528.563,184403,1747907067509.75,-99,-29,-114
1747907067548.344,184339,1747907067529.594,-85,-30,-125
1747907067568.188,184335,1747907067549.469,-85,-33,-113
1747907067588.031,184335,1747907067569.25,-97,-29,-122
1747907067607.906,184316,1747907067589.125,-88,-33,-112
1747907067627.719,184326,1747907067608.969,-76,-39,-121
1747907067647.594,184314,1747907067628.812,-98,-32,-119
1747907067667.438,184325,1747907067648.656,-85,-33,-116
1747907067687.281,184317,1747907067668.5,-92,-26,-113
1747907067707.125,184302,1747907067688.375,-90,-33,-112
1747907067726.969,184325,1747907067708.219,-98,-33,-113
1747907067746.813,184297,1747907067728.031,-89,-32,-127
1747907067766.656,184316,1747907067747.875,-90,-33,-113
1747907067786.5,184324,1747907067767.75,-89,-33,-119
1747907067806.312,184324,1747907067787.625,-88,-25,-113
1747907067826.188,184325,1747907067807.406,-84,-33,-109
1747907067846.031,184334,1747907067827.25,-89,-33,-109
1747907067865.875,184344,1747907067847.125,-103,-33,-116
1747907067885.719,184355,1747907067866.9382,-96,-29,-118
1747907067905.562,184391,1747907067886.813,-95,-31,-113
1747907067925.406,184421,1747907067906.625,-96,-25,-114
1747907067945.25,184461,1747907067926.469,-89,-33,-114
1747907067965.187,184493,1747907067946.344,-89,-29,-116
1747907067984.969,184529,1747907067966.188,-88,-24,-117
1747907068004.844,184555,1747907067986.031,-98,-33,-110
1747907068024.688,184630,1747907068005.906,-84,-33,-114
1747907068044.5,184664,1747907068025.75,-95,-29,-100
1747907068064.375,184699,1747907068045.563,-87,-33,-113
1747907068084.219,184659,1747907068065.438,-98,-33,-113
1747907068104.063,184596,1747907068085.281,-88,-33,-109
1747907068123.906,184522,1747907068105.156,-100,-33,-113
1747907068143.719,184439,1747907068125.0,-89,-33,-113
1747907068163.594,184358,1747907068144.813,-95,-31,-116
1747907068183.438,184285,1747907068164.656,-88,-33,-113
1747907068203.281,184237,1747907068184.5,-100,-33,-108
1747907068223.125,184202,1747907068204.375,-90,-33,-113
1747907068242.969,184163,1747907068224.188,-93,-33,-111
1747907068262.844,184163,1747907068244.063,-80,-34,-116
1747907068282.656,184171,1747907068263.906,-100,-35,-114
1747907068302.5,184162,1747907068283.75,-89,-33,-123
1747907068322.375,184185,1747907068303.594,-92,-16,-116
1747907068342.219,184188,1747907068323.438,-87,-33,-113
1747907068362.031,184216,1747907068343.313,-98,-33,-113
1747907068381.906,184215,1747907068363.156,-84,-26,-113
1747907068401.75,184207,1747907068382.969,-97,-33,-105
1747907068421.594,184161,1747907068402.844,-89,-28,-112
1747907068441.437,184143,1747907068422.688,-93,-41,-116
1747907068461.281,184123,1747907068442.531,-100,-33,-111
1747907068481.125,184145,1747907068462.312,-84,-33,-114
1747907068501.0,184165,1747907068482.187,-96,-29,-106
1747907068520.812,184188,1747907068502.094,-101,-29,-116
1747907068540.656,184223,1747907068521.969,-82,-29,-116
1747907068560.563,184208,1747907068541.719,-100,-26,-109
1747907068580.344,184239,1747907068561.625,-95,-29,-109
1747907068600.219,184268,1747907068581.437,-81,-25,-119
1747907068620.062,184331,1747907068601.281,-95,-29,-113
1747907068639.875,184364,1747907068621.125,-82,-39,-109
1747907068659.75,184406,1747907068640.969,-97,-33,-103
1747907068679.594,184448,1747907068660.844,-84,-32,-127
1747907068699.406,184509,1747907068680.656,-88,-33,-114
1747907068719.25,184536,1747907068700.5,-96,-33,-117
1747907068739.125,184500,1747907068720.313,-85,-26,-113
1747907068758.938,184435,1747907068740.187,-97,-33,-114
1747907068778.781,184350,1747907068760.0,-88,-25,-113
1747907068798.656,184243,1747907068779.875,-88,-33,-110
1747907068818.5,184159,1747907068799.781,-98,-28,-114
1747907068838.375,184074,1747907068819.563,-101,-28,-114
1747907068858.188,183999,1747907068839.437,-100,-29,-110
1747907068878.031,183952,1747907068859.312,-80,-29,-116
1747907068897.875,183902,1747907068879.094,-88,-37,-117
1747907068917.781,183870,1747907068898.938,-87,-33,-113
1747907068937.563,183868,1747907068918.813,-97,-13,-109
1747907068957.438,183876,1747907068938.687,-97,-29,-114
1747907068977.281,183870,1747907068958.531,-89,-29,-117
1747907068997.125,183879,1747907068978.344,-85,-33,-101
1747907069016.969,183883,1747907068998.25,-97,-28,-111
1747907069036.813,183870,1747907069018.062,-89,-33,-112
1747907069056.688,183871,1747907069037.906,-100,-33,-117
1747907069076.562,183886,1747907069057.75,-84,-29,-114
1747907069096.344,183877,1747907069077.625,-103,-29,-113
1747907069116.219,183874,1747907069097.438,-89,-33,-111
1747907069136.063,183879,1747907069117.281,-95,-33,-109
1747907069155.937,183891,1747907069137.125,-97,-33,-110
1747907069175.781,183903,1747907069157.0,-99,-30,-116
1747907069195.625,183950,1747907069176.875,-87,-26,-113
1747907069215.5,183968,1747907069196.687,-96,-33,-109
1747907069235.375,184014,1747907069216.594,-97,-33,-114
1747907069255.219,184039,1747907069236.438,-92,-33,-113
1747907069275.062,184059,1747907069256.313,-91,-34,-117
1747907069294.938,184117,1747907069276.125,-88,-33,-117
1747907069314.813,184127,1747907069296.0,-85,-33,-119
1747907069334.656,184195,1747907069315.875,-88,-33,-106
1747907069354.5,184233,1747907069335.75,-95,-29,-106
1747907069374.344,184241,1747907069355.563,-87,-37,-117
1747907069394.25,184224,1747907069375.437,-88,-33,-113
1747907069414.062,184131,1747907069395.312,-97,-33,-113
1747907069433.906,184070,1747907069415.188,-98,-25,-122
1747907069453.813,183978,1747907069435.0,-91,-29,-113
1747907069473.656,183869,1747907069454.875,-87,-25,-121
1747907069493.5,183801,1747907069474.719,-92,-31,-125
1747907069513.375,183744,1747907069494.594,-93,-33,-115
1747907069533.25,183684,1747907069514.438,-97,-29,-113
1747907069553.094,183651,1747907069534.312,-95,-33,-111
1747907069572.938,183627,1747907069554.156,-93,-34,-113
1747907069592.812,183625,1747907069574.063,-96,-33,-114
1747907069612.656,183614,1747907069593.875,-97,-33,-116
1747907069632.531,183601,1747907069613.75,-96,-28,-119
1747907069652.375,183598,1747907069633.594,-90,-33,-122
1747907069672.25,183598,1747907069653.5,-97,-32,-113
1747907069692.125,183611,1747907069673.313,-84,-33,-114
1747907069711.969,183611,1747907069693.188,-89,-33,-113
1747907069731.813,183604,1747907069713.031,-96,-29,-112
1747907069751.656,183600,1747907069732.906,-89,-29,-114
1747907069771.5,183609,1747907069752.75,-89,-33,-113
1747907069791.375,183618,1747907069772.625,-97,-33,-119
1747907069811.188,183631,1747907069792.469,-95,-33,-113
1747907069831.063,183674,1747907069812.281,-97,-29,-96
1747907069850.937,183703,1747907069832.094,-95,-33,-116
1747907069870.781,183747,1747907069852.031,-88,-33,-113
1747907069890.625,183764,1747907069871.875,-101,-29,-114
1747907069910.5,183814,1747907069891.75,-90,-32,-119
1747907069930.344,183865,1747907069911.562,-98,-33,-116
1747907069950.187,183911,1747907069931.406,-97,-37,-125
1747907069970.031,183958,1747907069951.25,-97,-33,-111
1747907069989.875,184004,1747907069971.1558,-88,-34,-118
1747907070009.75,184068,1747907069990.937,-100,-33,-124
1747907070029.625,184112,1747907070010.844,-88,-29,-113
1747907070049.469,184150,1747907070030.719,-88,-29,-116
1747907070069.313,184132,1747907070050.531,-88,-30,-121
1747907070089.188,184055,1747907070070.406,-88,-25,-116
1747907070109.031,183988,1747907070090.25,-87,-29,-113
1747907070128.906,183886,1747907070110.094,-89,-36,-116
1747907070148.719,183816,1747907070129.969,-85,-33,-117
1747907070168.594,183747,1747907070149.812,-97,-33,-116
1747907070188.469,183701,1747907070169.687,-88,-26,-113
1747907070208.312,183674,1747907070189.5,-84,-33,-121
1747907070228.187,183646,1747907070209.406,-97,-29,-116
1747907070248.031,183644,1747907070229.25,-82,-25,-116
1747907070267.969,183632,1747907070249.125,-91,-33,-113
1747907070287.75,183655,1747907070269.031,-96,-33,-113
1747907070307.594,183665,1747907070288.8132,-84,-29,-110
1747907070327.531,183660,1747907070308.656,-108,-29,-113
1747907070347.313,183657,1747907070328.5,-89,-24,-120
1747907070367.188,183688,1747907070348.375,-93,-33,-114
1747907070387.0,183684,1747907070368.25,-96,-33,-113
1747907070406.875,183710,1747907070388.063,-93,-41,-129
1747907070426.719,183735,1747907070407.938,-85,-33,-124
1747907070446.563,183773,1747907070427.812,-103,-33,-115
1747907070466.375,183786,1747907070447.625,-92,-33,-112
1747907070486.25,183819,1747907070467.438,-89,-29,-106
1747907070506.094,183850,1747907070487.344,-101,-33,-113
1747907070525.969,183864,1747907070507.187,-91,-33,-113
1747907070545.813,183922,1747907070527.062,-88,-28,-116
1747907070565.656,183973,1747907070546.906,-97,-29,-119
1747907070585.531,184023,1747907070566.75,-101,-33,-110
1747907070605.406,184069,1747907070586.594,-85,-29,-118
1747907070625.219,184136,1747907070606.594,-89,-31,-111
1747907070645.062,184195,1747907070626.312,-88,-33,-116
1747907070665.0,184254,1747907070646.125,-98,-29,-113
1747907070684.813,184325,1747907070666.0308,-89,-16,-114
1747907070704.625,184370,1747907070685.875,-100,-33,-109
1747907070724.5,184453,1747907070705.719,-90,-34,-116
1747907070744.344,184477,1747907070725.594,-90,-33,-98
1747907070764.219,184480,1747907070745.469,-100,-33,-106
1747907070784.063,184428,1747907070765.281,-89,-33,-110
1747907070803.906,184363,1747907070785.156,-98,-29,-121
1747907070823.75,184303,1747907070804.969,-97,-33,-113
1747907070843.594,184253,1747907070824.844,-88,-33,-116
1747907070863.437,184195,1747907070844.656,-98,-33,-114
1747907070883.281,184177,1747907070864.531,-89,-36,-114
1747907070903.125,184148,1747907070884.375,-93,-33,-112
1747907070923.0,184151,1747907070904.219,-86,-29,-114
1747907070942.875,184148,1747907070924.094,-92,-35,-116
1747907070962.656,184187,1747907070943.938,-90,-33,-115
1747907070982.531,184184,1747907070963.75,-95,-29,-113
1747907071002.375,184200,1747907070983.594,-88,-33,-114
1747907071022.187,184212,1747907071003.438,-89,-21,-116
1747907071042.031,184230,1747907071023.313,-95,-33,-113
1747907071061.906,184259,1747907071043.125,-94,-33,-116
1747907071081.781,184288,1747907071062.969,-85,-41,-92
1747907071101.594,184294,1747907071082.938,-93,-33,-113
1747907071121.437,184312,1747907071102.688,-94,-29,-113
1747907071141.281,184344,1747907071122.531,-85,-30,-125
1747907071161.156,184359,1747907071142.375,-97,-33,-114
1747907071180.969,184422,1747907071162.25,-90,-33,-113
1747907071200.844,184464,1747907071182.125,-98,-33,-110
1747907071220.719,184501,1747907071201.906,-100,-25,-113
1747907071240.531,184558,1747907071221.781,-97,-25,-115
1747907071260.406,184605,1747907071241.625,-86,-33,-117
1747907071280.281,184663,1747907071261.5,-97,-33,-121
1747907071300.094,184733,1747907071281.344,-80,-33,-113
1747907071319.937,184815,1747907071301.156,-85,-33,-114
1747907071339.844,184868,1747907071321.031,-100,-33,-113
1747907071359.625,184938,1747907071340.844,-93,-26,-123
1747907071379.469,185015,1747907071360.687,-98,-33,-109
1747907071399.281,185082,1747907071380.531,-87,-29,-115
1747907071419.156,185139,1747907071400.375,-90,-37,-106
1747907071438.969,185201,1747907071420.219,-84,-33,-110
1747907071458.813,185264,1747907071440.094,-96,-33,-116
1747907071478.687,185302,1747907071459.875,-89,-33,-112
1747907071498.562,185276,1747907071479.75,-93,-33,-111
1747907071518.344,185224,1747907071499.625,-87,-33,-114
1747907071538.188,185187,1747907071519.437,-81,-33,-112
1747907071558.063,185124,1747907071539.281,-97,-33,-113
1747907071577.875,185113,1747907071559.125,-98,-25,-114
1747907071597.719,185113,1747907071578.969,-89,-25,-113
1747907071617.563,185106,1747907071598.844,-93,-33,-114
1747907071637.406,185105,1747907071618.625,-101,-29,-110
1747907071657.281,185134,1747907071638.5,-100,-33,-119
1747907071677.094,185145,1747907071658.344,-92,-39,-113
1747907071696.969,185168,1747907071678.188,-96,-31,-110
1747907071716.813,185206,1747907071698.0,-95,-33,-111
1747907071736.656,185229,1747907071717.844,-85,-33,-119
1747907071756.5,185260,1747907071737.75,-94,-32,-129
1747907071776.344,185277,1747907071757.5632,-84,-26,-113
1747907071796.156,185304,1747907071777.375,-92,-33,-110
1747907071816.031,185334,1747907071797.219,-89,-33,-117
1747907071835.906,185360,1747907071817.094,-88,-33,-113
1747907071855.687,185396,1747907071836.969,-100,-33,-113
1747907071875.562,185427,1747907071856.75,-93,-33,-106
1747907071895.469,185485,1747907071876.625,-89,-26,-114
1747907071915.281,185546,1747907071896.531,-88,-33,-111
1747907071935.063,185610,1747907071916.281,-89,-34,-120
1747907071954.906,185665,1747907071936.188,-87,-26,-120
1747907071974.781,185742,1747907071955.969,-97,-37,-114
1747907071994.625,185795,1747907071975.844,-89,-29,-121
1747907072014.438,185860,1747907071995.719,-100,-33,-115
1747907072034.281,185928,1747907072015.562,-104,-32,-116
1747907072054.125,185989,1747907072035.375,-95,-29,-113
1747907072073.969,186064,1747907072055.188,-80,-33,-122
1747907072093.813,186145,1747907072075.031,-97,-33,-104
1747907072113.656,186222,1747907072094.937,-84,-33,-116
1747907072133.5,186302,1747907072114.719,-97,-16,-122
1747907072153.375,186369,1747907072134.688,-93,-33,-114
1747907072173.187,186416,1747907072154.469,-92,-33,-111
1747907072193.031,186456,1747907072174.312,-85,-29,-97
1747907072212.9058,186433,1747907072194.156,-97,-29,-115
1747907072232.75,186403,1747907072213.969,-88,-33,-109
1747907072252.594,186378,1747907072233.813,-101,-26,-113
1747907072272.438,186358,1747907072253.688,-91,-33,-113
1747907072292.281,186354,1747907072273.5,-95,-33,-113
1747907072312.125,186337,1747907072293.344,-80,-36,-108
1747907072331.969,186351,1747907072313.188,-86,-33,-113
1747907072351.844,186348,1747907072333.063,-90,-29,-113
1747907072371.656,186379,1747907072352.875,-88,-20,-121
1747907072391.5,186435,1747907072372.75,-96,-33,-116
1747907072411.375,186484,1747907072392.562,-97,-33,-113
1747907072431.187,186530,1747907072412.438,-85,-29,-113
1747907072451.031,186552,1747907072432.281,-95,-33,-113
1747907072470.875,186584,1747907072452.094,-87,-36,-113
1747907072490.719,186634,1747907072471.969,-103,-33,-112
1747907072510.531,186671,1747907072491.812,-90,-33,-114
1747907072530.375,186695,1747907072511.625,-90,-35,-117
1747907072550.25,186743,1747907072531.4382,-100,-29,-113
1747907072570.094,186786,1747907072551.344,-87,-29,-117
1747907072589.906,186844,1747907072571.25,-91,-34,-113
1747907072609.781,186876,1747907072591.031,-98,-29,-121
1747907072629.625,186937,1747907072610.844,-89,-39,-112
1747907072649.469,186991,1747907072630.688,-99,-29,-110
1747907072669.313,187050,1747907072650.531,-98,-33,-113
1747907072689.156,187117,1747907072670.406,-100,-25,-124
1747907072709.0,187167,1747907072690.219,-97,-33,-101
1747907072728.844,187224,1747907072710.125,-91,-33,-111
1747907072748.688,187293,1747907072729.906,-90,-33,-117
1747907072768.531,187366,1747907072749.75,-98,-33,-121
1747907072788.406,187435,1747907072769.562,-85,-33,-109
1747907072808.219,187519,1747907072789.469,-87,-34,-116
1747907072828.094,187572,1747907072809.313,-93,-33,-114
1747907072847.938,187655,1747907072829.187,-87,-33,-113
1747907072867.781,187700,1747907072849.0,-98,-33,-114
1747907072887.625,187727,1747907072868.844,-87,-29,-118
1747907072907.5,187710,1747907072888.719,-95,-33,-113
1747907072927.313,187672,1747907072908.594,-93,-29,-116
1747907072947.156,187646,1747907072928.406,-92,-33,-113
1747907072967.094,187633,1747907072948.219,-96,-33,-109
1747907072986.875,187632,1747907072968.062,-93,-18,-114
1747907073006.687,187631,1747907072987.938,-98,-25,-110
1747907073026.563,187645,1747907073007.812,-89,-28,-115
1747907073046.406,187669,1747907073027.625,-100,-37,-96
1747907073066.25,187692,1747907073047.469,-97,-29,-113
1747907073086.094,187752,1747907073067.344,-95,-26,-121
1747907073105.937,187789,1747907073087.188,-89,-27,-121
1747907073125.813,187840,1747907073107.031,-92,-33,-112
1747907073145.656,187882,1747907073126.875,-89,-33,-109
1747907073165.5,187908,1747907073146.719,-94,-33,-111
1747907073185.344,187952,1747907073166.625,-88,-33,-116
1747907073205.219,187995,1747907073186.438,-100,-26,-112
1747907073225.063,188019,1747907073206.281,-97,-29,-118
1747907073244.906,188074,1747907073226.156,-89,-33,-110
1747907073264.781,188115,1747907073246.031,-90,-29,-115
1747907073284.625,188160,1747907073265.8132,-84,-33,-109
1747907073304.531,188212,1747907073285.687,-86,-33,-113
1747907073324.313,188291,1747907073305.562,-99,-32,-113
1747907073344.25,188337,1747907073325.438,-84,-33,-116
1747907073364.094,188411,1747907073345.313,-97,-33,-111
1747907073384.0,188474,1747907073365.187,-87,-15,-120
1747907073403.8442,188519,1747907073385.062,-92,-29,-117
1747907073423.687,188604,1747907073404.938,-80,-33,-113
1747907073443.562,188651,1747907073424.75,-93,-33,-114
1747907073463.438,188736,1747907073444.625,-89,-33,-114
1747907073483.25,188817,1747907073464.531,-89,-16,-119
1747907073503.156,188895,1747907073484.438,-89,-33,-114
1747907073523.0,188971,1747907073504.219,-100,-29,-113
1747907073542.844,189030,1747907073524.094,-98,-29,-104
1747907073562.6882,189049,1747907073543.937,-97,-34,-116
1747907073582.687,189026,1747907073563.781,-96,-33,-114
1747907073602.406,189011,1747907073583.75,-93,-29,-113
1747907073622.281,188975,1747907073603.469,-97,-29,-122
1747907073642.125,188974,1747907073623.344,-90,-33,-106
1747907073661.969,188960,1747907073643.219,-113,-39,-113
1747907073681.844,188973,1747907073663.031,-84,-33,-116
1747907073701.687,188968,1747907073682.875,-81,-32,-127
1747907073721.531,189000,1747907073702.781,-84,-33,-121
1747907073741.406,189007,1747907073722.656,-89,-34,-121
1747907073761.281,189002,1747907073742.469,-97,-33,-118
1747907073781.125,189029,1747907073762.344,-93,-33,-121
1747907073800.969,189087,1747907073782.188,-90,-29,-109
1747907073820.813,189126,1747907073802.062,-84,-29,-108
1747907073840.656,189163,1747907073821.906,-100,-33,-116
1747907073860.531,189192,1747907073841.75,-90,-33,-109
1747907073880.344,189225,1747907073861.563,-93,-29,-100
1747907073900.219,189241,1747907073881.469,-89,-33,-116
1747907073920.063,189259,1747907073901.281,-98,-33,-116
1747907073939.937,189292,1747907073921.125,-87,-29,-119
1747907073959.75,189319,1747907073941.0,-92,-33,-113
1747907073979.594,189397,1747907073960.844,-80,-36,-113
1747907073999.438,189466,1747907073980.687,-100,-33,-113
1747907074019.313,189523,1747907074000.5,-87,-29,-115
1747907074039.125,189566,1747907074020.375,-74,-33,-108
1747907074058.969,189641,1747907074040.188,-93,-31,-127
1747907074078.813,189712,1747907074060.063,-85,-33,-113
1747907074098.688,189765,1747907074079.906,-95,-33,-113
1747907074118.531,189849,1747907074099.781,-90,-33,-125
1747907074138.375,189912,1747907074119.625,-88,-33,-122
1747907074158.219,189989,1747907074139.406,-90,-36,-125
1747907074178.094,190069,1747907074159.344,-95,-33,-119
1747907074197.906,190145,1747907074179.156,-103,-33,-114
1747907074217.781,190213,1747907074199.031,-88,-30,-113
1747907074237.656,190208,1747907074218.844,-94,-31,-116
1747907074257.5632,190206,1747907074238.719,-96,-33,-113
1747907074277.344,190179,1747907074258.625,-90,-33,-110
1747907074297.219,190151,1747907074278.469,-97,-29,-119
1747907074317.062,190114,1747907074298.281,-96,-33,-118
1747907074336.937,190101,1747907074318.125,-103,-33,-114
1747907074356.781,190093,1747907074338.0,-89,-29,-113
1747907074376.625,190099,1747907074357.875,-100,-45,-117
1747907074396.5,190109,1747907074377.719,-88,-33,-117
1747907074416.406,190115,1747907074397.563,-89,-33,-115
1747907074436.188,190148,1747907074417.406,-87,-25,-117
1747907074456.094,190188,1747907074437.3118,-87,-34,-129
1747907074475.969,190214,1747907074457.187,-100,-29,-114
1747907074495.812,190250,1747907074477.0,-85,-33,-125
1747907074515.656,190266,1747907074496.875,-88,-33,-120
1747907074535.531,190321,1747907074516.75,-96,-33,-113
1747907074555.375,190336,1747907074536.625,-87,-33,-116
1747907074575.281,190387,1747907074556.469,-97,-33,-114
1747907074595.125,190416,1747907074576.313,-84,-33,-110
1747907074614.969,190456,1747907074596.25,-103,-29,-116
1747907074634.844,190501,1747907074616.031,-89,-29,-110
1747907074654.687,190524,1747907074635.938,-103,-29,-108
1747907074674.531,190592,1747907074655.781,-79,-33,-114
1747907074694.406,190649,1747907074675.656,-84,-33,-115
1747907074714.281,190710,1747907074695.469,-87,-33,-112
1747907074734.156,190756,1747907074715.344,-77,-28,-116
1747907074753.969,190815,1747907074735.219,-89,-33,-116
1747907074773.813,190884,1747907074755.063,-103,-35,-109
1747907074793.688,190954,1747907074774.875,-85,-33,-113
1747907074813.531,191025,1747907074794.781,-95,-27,-109
1747907074833.375,191085,1747907074814.594,-89,-33,-115
1747907074853.219,191153,1747907074834.438,-93,-33,-117
1747907074873.063,191229,1747907074854.281,-84,-33,-114
1747907074892.969,191282,1747907074874.156,-88,-29,-116
1747907074912.75,191358,1747907074894.063,-96,-33,-110
1747907074932.625,191421,1747907074913.844,-88,-33,-118
1747907074952.437,191445,1747907074933.688,-90,-33,-116
1747907074972.344,191440,1747907074953.531,-89,-29,-116
1747907074992.188,191403,1747907074973.375,-96,-34,-110
1747907075012.0,191375,1747907074993.281,-88,-33,-111
1747907075031.875,191361,1747907075013.094,-84,-33,-125
1747907075051.719,191324,1747907075032.969,-93,-33,-119
1747907075071.594,191331,1747907075052.812,-77,-25,-121
1747907075091.437,191360,1747907075072.656,-87,-29,-114
1747907075111.281,191386,1747907075092.5,-89,-33,-116
1747907075131.125,191368,1747907075112.344,-92,-33,-117
1747907075151.0,191327,1747907075132.219,-96,-27,-109
1747907075170.813,191282,1747907075152.094,-90,-17,-105
1747907075190.687,191269,1747907075171.906,-75,-41,-101
1747907075210.531,191269,1747907075191.75,-92,-45,-116
1747907075230.406,191314,1747907075211.594,-95,-37,-114
1747907075250.219,191420,1747907075231.5,-93,-33,-119
1747907075270.094,191520,1747907075251.281,-80,-29,-114
1747907075289.906,191625,1747907075271.156,-88,-39,-113
1747907075309.781,191764,1747907075291.0,-98,-33,-110
1747907075329.625,191814,1747907075310.875,-93,-33,-113
1747907075349.5,191818,1747907075330.719,-96,-29,-116
1747907075369.437,191846,1747907075350.531,-92,-29,-125
1747907075389.219,191863,1747907075370.469,-96,-29,-125
1747907075409.031,191892,1747907075390.281,-88,-22,-116
1747907075428.875,191913,1747907075410.125,-89,-24,-109
1747907075448.75,191960,1747907075429.969,-95,-25,-116
1747907075468.625,191987,1747907075449.813,-84,-8,-121
1747907075488.437,192017,1747907075469.688,-95,-29,-120
1747907075508.281,192074,1747907075489.562,-89,-31,-116
1747907075528.156,192106,1747907075509.375,-95,-25,-114
1747907075548.0,192170,1747907075529.25,-89,-25,-116
1747907075567.812,192228,1747907075549.094,-103,-29,-113
1747907075587.688,192291,1747907075568.906,-93,-25,-104
1747907075607.531,192331,1747907075588.75,-93,-29,-104
1747907075627.375,192400,1747907075608.656,-85,-34,-113
1747907075647.219,192433,1747907075628.438,-96,-27,-116
1747907075667.062,192443,1747907075648.313,-90,-29,-113
1747907075686.906,192415,1747907075668.156,-89,-29,-113
1747907075706.813,192380,1747907075688.0,-96,-33,-123
1747907075726.625,192355,1747907075707.875,-89,-37,-113
1747907075746.5,192343,1747907075727.719,-84,-29,-114
1747907075766.375,192327,1747907075747.563,-89,-33,-116
1747907075786.219,192339,1747907075767.437,-97,-37,-106
1747907075806.062,192348,1747907075787.312,-88,-28,-119
1747907075825.906,192367,1747907075807.156,-95,-33,-113
1747907075845.75,192376,1747907075826.969,-86,-33,-113
1747907075865.625,192405,1747907075846.812,-92,-29,-113
1747907075885.438,192452,1747907075866.719,-89,-36,-116
1747907075905.281,192476,1747907075886.531,-97,-33,-114
1747907075925.156,192501,1747907075906.375,-87,-29,-114
1747907075945.0,192512,1747907075926.219,-95,-31,-122
1747907075964.844,192539,1747907075946.062,-95,-33,-113
1747907075984.656,192560,1747907075965.906,-96,-34,-113
1747907076004.531,192581,1747907075985.719,-100,-33,-113
1747907076024.375,192616,1747907076005.594,-96,-33,-113
1747907076044.25,192643,1747907076025.469,-95,-33,-121
1747907076064.063,192686,1747907076045.312,-84,-33,-110
1747907076083.906,192739,1747907076065.125,-81,-29,-118
1747907076103.781,192766,1747907076085.0,-98,-33,-110
1747907076123.625,192823,1747907076104.844,-72,-37,-119
1747907076143.469,192871,1747907076124.656,-93,-33,-122
1747907076163.344,192921,1747907076144.531,-97,-29,-116
1747907076183.156,192977,1747907076164.406,-81,-36,-116
1747907076203.031,193016,1747907076184.219,-90,-33,-129
1747907076222.875,193071,1747907076204.125,-98,-26,-116
1747907076242.719,193143,1747907076223.937,-88,-30,-114
1747907076262.563,193193,1747907076243.812,-97,-29,-109
1747907076282.437,193253,1747907076263.656,-89,-33,-113
1747907076302.25,193291,1747907076283.5,-98,-33,-114
1747907076322.125,193324,1747907076303.344,-88,-28,-114
1747907076341.969,193347,1747907076323.187,-98,-33,-111
1747907076361.812,193335,1747907076343.031,-100,-33,-110
1747907076381.656,193289,1747907076362.906,-93,-33,-117
1747907076401.5,193246,1747907076382.781,-93,-33,-110
1747907076421.344,193210,1747907076402.562,-81,-31,-113
1747907076441.188,193193,1747907076422.437,-87,-33,-116
1747907076461.031,193182,1747907076442.25,-88,-34,-117
1747907076480.875,193205,1747907076462.125,-87,-33,-109
1747907076500.75,193189,1747907076481.9692,-98,-33,-114
1747907076520.594,193211,1747907076501.812,-94,-29,-120
1747907076540.406,193212,1747907076521.656,-84,-33,-117
1747907076560.281,193266,1747907076541.5,-86,-33,-113
1747907076580.156,193282,1747907076561.344,-96,-29,-120
1747907076600.0,193310,1747907076581.25,-88,-33,-113
1747907076619.813,193322,1747907076601.062,-89,-25,-121
1747907076639.656,193371,1747907076621.0,-80,-35,-113
1747907076659.531,193374,1747907076640.75,-96,-33,-117
1747907076679.375,193391,1747907076660.625,-85,-33,-113
1747907076699.219,193401,1747907076680.469,-90,-30,-116
1747907076719.125,193422,1747907076700.312,-84,-36,-122
1747907076738.906,193461,1747907076720.188,-89,-34,-114
1747907076758.75,193500,1747907076739.969,-97,-32,-110
1747907076778.594,193561,1747907076759.813,-94,-34,-113
1747907076798.406,193592,1747907076779.687,-84,-33,-109
1747907076818.25,193626,1747907076799.469,-91,-37,-113
1747907076838.125,193673,1747907076819.406,-93,-26,-116
1747907076857.937,193720,1747907076839.188,-88,-33,-114
1747907076877.781,193775,1747907076859.031,-95,-29,-125
1747907076897.625,193825,1747907076878.875,-87,-33,-114
1747907076917.469,193876,1747907076898.6868,-96,-29,-113
1747907076937.3118,193922,1747907076918.531,-88,-29,-112
1747907076957.125,193990,1747907076938.375,-97,-33,-114
1747907076976.969,194006,1747907076958.219,-88,-29,-115
1747907076996.844,194018,1747907076978.062,-90,-22,-116
1747907077016.687,193964,1747907076997.906,-85,-33,-110
1747907077036.5,193929,1747907077017.719,-97,-24,-131
1747907077056.344,193898,1747907077037.594,-89,-33,-116
1747907077076.188,193874,1747907077057.406,-93,-33,-110
1747907077096.063,193857,1747907077077.281,-96,-33,-120
1747907077115.875,193854,1747907077097.125,-89,-29,-116
1747907077135.719,193860,1747907077117.0,-96,-33,-114
1747907077155.594,193872,1747907077136.781,-87,-36,-129
1747907077175.438,193892,1747907077156.656,-87,-33,-113
1747907077195.281,193909,1747907077176.5,-84,-33,-125
1747907077215.125,193937,1747907077196.344,-100,-29,-113
1747907077235.0,193964,1747907077216.188,-97,-26,-118
1747907077254.844,193992,1747907077236.063,-88,-29,-110
1747907077274.688,194008,1747907077255.906,-90,-33,-114
1747907077294.531,194053,1747907077275.781,-87,-33,-116
1747907077314.375,194058,1747907077295.594,-89,-33,-114
1747907077334.25,194076,1747907077315.438,-97,-25,-113
1747907077354.094,194085,1747907077335.312,-89,-29,-117
1747907077373.906,194115,1747907077355.125,-97,-29,-113
1747907077393.781,194146,1747907077375.0,-98,-26,-116
1747907077413.625,194161,1747907077394.875,-86,-29,-115
1747907077433.469,194182,1747907077414.688,-105,-41,-104
1747907077453.3132,194250,1747907077434.531,-89,-33,-117
1747907077473.156,194276,1747907077454.406,-89,-32,-121
1747907077493.0,194328,1747907077474.219,-92,-33,-121
1747907077512.906,194365,1747907077494.094,-96,-33,-106
1747907077532.656,194394,1747907077513.906,-82,-20,-121
1747907077552.531,194442,1747907077533.75,-84,-29,-121
1747907077572.375,194507,1747907077553.625,-95,-33,-113
1747907077592.219,194545,1747907077573.438,-87,-33,-113
1747907077612.031,194534,1747907077593.281,-89,-29,-116
1747907077631.969,194523,1747907077613.156,-85,-29,-116
1747907077651.781,194489,1747907077633.031,-90,-33,-106
1747907077671.594,194463,1747907077652.812,-89,-29,-117
1747907077691.437,194428,1747907077672.656,-100,-33,-110
1747907077711.25,194412,1747907077692.531,-113,-29,-119
1747907077731.125,194400,1747907077712.344,-101,-29,-113
1747907077750.969,194402,1747907077732.219,-88,-33,-116
1747907077770.844,194413,1747907077752.063,-93,-31,-116
1747907077790.687,194434,1747907077771.938,-87,-33,-120
1747907077810.531,194456,1747907077791.781,-96,-33,-109
1747907077830.406,194477,1747907077811.625,-86,-33,-112
1747907077850.25,194505,1747907077831.469,-94,-31,-116
1747907077870.094,194532,1747907077851.344,-87,-29,-104
1747907077889.969,194553,1747907077871.188,-97,-33,-116
1747907077909.813,194556,1747907077891.031,-93,-33,-113
1747907077929.656,194591,1747907077910.875,-96,-29,-104
1747907077949.469,194615,1747907077930.719,-96,-33,-112
1747907077969.406,194647,1747907077950.531,-92,-33,-114
1747907077989.219,194673,1747907077970.469,-94,-37,-114
1747907078009.031,194705,1747907077990.25,-100,-33,-115
1747907078028.875,194742,1747907078010.094,-98,-29,-114
1747907078048.687,194771,1747907078029.938,-97,-38,-116
1747907078068.562,194810,1747907078049.75,-90,-34,-119
1747907078088.438,194848,1747907078069.625,-95,-33,-113
1747907078108.25,194893,1747907078089.5,-89,-32,-110
1747907078128.125,194944,1747907078109.344,-95,-33,-109
1747907078147.969,195002,1747907078129.219,-85,-34,-119
1747907078167.844,195035,1747907078149.063,-93,-25,-127
1747907078187.6882,195087,1747907078168.906,-89,-33,-113
1747907078207.531,195138,1747907078188.781,-95,-33,-111
1747907078227.406,195179,1747907078208.625,-87,-33,-112
1747907078247.25,195195,1747907078228.469,-100,-33,-113
1747907078267.094,195181,1747907078248.312,-92,-33,-113
1747907078286.938,195156,1747907078268.187,-98,-29,-112
1747907078306.844,195106,1747907078288.0,-87,-37,-114
1747907078326.656,195084,1747907078307.906,-92,-33,-110
1747907078346.469,195083,1747907078327.719,-88,-35,-114
1747907078366.344,195060,1747907078347.594,-95,-29,-112
1747907078386.156,195071,1747907078367.406,-97,-34,-114
1747907078406.031,195065,1747907078387.281,-99,-29,-113
1747907078425.844,195093,1747907078407.125,-84,-30,-120
1747907078445.719,195118,1747907078426.938,-88,-31,-123
1747907078465.563,195127,1747907078446.781,-98,-33,-114
1747907078485.406,195152,1747907078466.656,-80,-33,-114
1747907078505.25,195190,1747907078486.5,-89,-33,-125
1747907078525.094,195199,1747907078506.375,-88,-29,-116
1747907078544.938,195232,1747907078526.156,-87,-33,-115
1747907078564.813,195230,1747907078546.062,-88,-33,-111
1747907078584.656,195256,1747907078565.875,-97,-33,-113
1747907078604.5,195274,1747907078585.75,-85,-33,-114
1747907078624.375,195311,1747907078605.594,-100,-33,-117
1747907078644.219,195336,1747907078625.469,-90,-29,-121
1747907078664.062,195371,1747907078645.312,-89,-28,-113
1747907078683.906,195429,1747907078665.125,-83,-35,-113
1747907078703.781,195441,1747907078685.0,-99,-33,-108
1747907078723.625,195496,1747907078704.844,-98,-29,-116
1747907078743.469,195533,1747907078724.687,-96,-26,-111
1747907078763.281,195595,1747907078744.562,-85,-26,-120
1747907078783.187,195637,1747907078764.375,-88,-41,-113
1747907078803.031,195679,1747907078784.25,-100,-33,-108
1747907078822.875,195724,1747907078804.094,-87,-33,-114
1747907078842.688,195761,1747907078823.937,-87,-28,-112
1747907078862.656,195790,1747907078843.781,-98,-33,-115
1747907078882.406,195807,1747907078863.625,-89,-16,-121
1747907078902.281,195789,1747907078883.531,-93,-33,-114
1747907078922.125,195783,1747907078903.375,-89,-33,-114
1747907078941.969,195743,1747907078923.187,-97,-33,-121
1747907078961.844,195693,1747907078943.063,-87,-33,-108
1747907078981.75,195706,1747907078962.9058,-92,-33,-121
1747907079001.531,195709,1747907078982.812,-92,-33,-111
1747907079021.375,195719,1747907079002.594,-89,-29,-113
1747907079041.25,195716,1747907079022.438,-97,-33,-106
1747907079061.094,195733,1747907079042.313,-97,-34,-113
1747907079080.938,195773,1747907079062.156,-92,-33,-119
1747907079100.781,195801,1747907079082.031,-88,-33,-109
1747907079120.656,195828,1747907079101.875,-100,-41,-114
1747907079140.5,195853,1747907079121.719,-100,-33,-110
1747907079160.344,195876,1747907079141.594,-86,-33,-121
1747907079180.188,195912,1747907079161.437,-100,-28,-125
1747907079200.063,195933,1747907079181.281,-89,-33,-113
1747907079219.906,195964,1747907079201.156,-93,-33,-113
1747907079239.719,195972,1747907079221.0,-89,-31,-116
1747907079259.594,195998,1747907079240.813,-87,-35,-121
1747907079279.438,196024,1747907079260.687,-87,-33,-112
1747907079299.2808,196041,1747907079280.531,-79,-29,-113
1747907079319.156,196066,1747907079300.375,-92,-33,-119
1747907079338.969,196122,1747907079320.25,-92,-33,-114
1747907079358.844,196160,1747907079340.031,-87,-33,-114
1747907079378.688,196201,1747907079359.937,-96,-29,-114
1747907079398.531,196234,1747907079379.75,-97,-34,-113
1747907079418.406,196264,1747907079399.656,-87,-29,-117
1747907079438.25,196302,1747907079419.4692,-97,-33,-113
1747907079458.125,196344,1747907079439.312,-100,-33,-116
1747907079477.937,196382,1747907079459.187,-85,-33,-113
1747907079497.812,196396,1747907079479.031,-89,-29,-113
1747907079517.656,196369,1747907079498.875,-97,-34,-121
1747907079537.531,196322,1747907079518.719,-84,-29,-109
1747907079557.313,196275,1747907079538.594,-96,-29,-116
1747907079577.187,196241,1747907079558.406,-89,-33,-113
1747907079597.062,196203,1747907079578.25,-88,-33,-111
1747907079616.906,196163,1747907079598.156,-89,-33,-113
1747907079636.75,196147,1747907079617.969,-93,-28,-114
1747907079656.594,196145,1747907079637.812,-89,-33,-114
1747907079676.437,196142,1747907079657.688,-93,-25,-116
1747907079696.312,196147,1747907079677.5,-97,-25,-113
1747907079716.125,196164,1747907079697.375,-88,-33,-116
1747907079735.938,196183,1747907079717.219,-104,-37,-110
1747907079755.812,196213,1747907079737.031,-89,-26,-116
1747907079775.687,196227,1747907079756.875,-100,-33,-113
1747907079795.563,196220,1747907079776.75,-88,-33,-119
1747907079815.375,196237,1747907079796.625,-96,-33,-113
1747907079835.219,196249,1747907079816.469,-84,-29,-108
1747907079855.062,196259,1747907079836.281,-93,-33,-125
1747907079874.937,196287,1747907079856.156,-89,-33,-115
1747907079894.719,196303,1747907079876.0,-89,-33,-114
1747907079914.594,196333,1747907079895.812,-89,-29,-114
1747907079934.438,196349,1747907079915.625,-95,-33,-111
1747907079954.312,196386,1747907079935.5,-87,-33,-113
1747907079974.156,196407,1747907079955.406,-85,-29,-113
1747907079994.031,196439,1747907079975.25,-82,-33,-113
1747907080013.875,196477,1747907079995.125,-98,-33,-121
1747907080033.75,196525,1747907080014.969,-97,-29,-114
1747907080053.562,196551,1747907080034.813,-93,-33,-104
1747907080073.438,196599,1747907080054.688,-99,-33,-116
1747907080093.281,196628,1747907080074.5,-97,-33,-117
1747907080113.156,196680,1747907080094.375,-92,-33,-117
1747907080132.969,196687,1747907080114.219,-104,-49,-117
1747907080152.812,196682,1747907080134.063,-96,-35,-106
1747907080172.688,196647,1747907080153.875,-85,-33,-108
1747907080192.5,196605,1747907080173.719,-96,-33,-125
1747907080212.344,196581,1747907080193.594,-88,-29,-116
1747907080232.187,196534,1747907080213.469,-98,-29,-121
1747907080252.063,196490,1747907080233.25,-89,-33,-113
1747907080271.938,196481,1747907080253.125,-97,-29,-114
1747907080291.719,196461,1747907080273.0,-90,-33,-110
1747907080311.594,196461,1747907080292.813,-85,-33,-109
1747907080331.5,196456,1747907080312.6882,-93,-30,-114
1747907080351.3132,196463,1747907080332.562,-90,-33,-117
1747907080371.125,196483,1747907080352.375,-97,-31,-113
1747907080391.0,196478,1747907080372.25,-84,-33,-111
1747907080410.844,196490,1747907080392.063,-93,-35,-113
1747907080430.687,196510,1747907080411.938,-87,-36,-119
1747907080450.531,196508,1747907080431.75,-96,-33,-109
1747907080470.375,196519,1747907080451.625,-86,-41,-120
1747907080490.2192,196512,1747907080471.437,-88,-33,-114
1747907080510.062,196532,1747907080491.281,-88,-32,-125
1747907080529.938,196547,1747907080511.156,-97,-33,-115
1747907080549.75,196567,1747907080531.0,-88,-33,-113
1747907080569.625,196567,1747907080550.812,-91,-37,-114
1747907080589.469,196593,1747907080570.719,-89,-33,-121
1747907080609.312,196611,1747907080590.531,-92,-33,-121
1747907080629.125,196649,1747907080610.406,-100,-31,-96
1747907080649.0,196661,1747907080630.187,-93,-33,-113
1747907080668.906,196701,1747907080650.062,-84,-29,-113
1747907080688.75,196757,1747907080669.969,-84,-33,-114
1747907080708.531,196754,1747907080689.781,-85,-33,-124
1747907080728.375,196815,1747907080709.625,-92,-33,-116
1747907080748.219,196836,1747907080729.437,-105,-38,-113
1747907080768.094,196871,1747907080749.281,-84,-29,-113
1747907080787.906,196914,1747907080769.156,-84,-33,-113
1747907080807.75,196909,1747907080789.0,-89,-32,-116
1747907080827.594,196908,1747907080808.844,-97,-29,-119
1747907080847.438,196863,1747907080828.687,-98,-33,-113
1747907080867.281,196808,1747907080848.531,-85,-31,-120
1747907080887.125,196743,1747907080868.406,-98,-33,-113
1747907080906.969,196729,1747907080888.2192,-90,-33,-120
1747907080926.844,196684,1747907080908.156,-89,-33,-110
1747907080946.656,196659,1747907080927.906,-97,-33,-115
1747907080966.5,196631,1747907080947.75,-90,-33,-108
1747907080986.344,196609,1747907080967.563,-97,-33,-113
1747907081006.219,196615,1747907080987.437,-87,-33,-113
1747907081026.031,196629,1747907081007.312,-100,-29,-116
1747907081045.906,196617,1747907081027.125,-88,-31,-120
1747907081065.75,196638,1747907081046.969,-89,-26,-119
1747907081085.625,196632,1747907081066.844,-96,-33,-114
1747907081105.469,196639,1747907081086.687,-91,-35,-113
1747907081125.344,196643,1747907081106.531,-87,-33,-125
1747907081145.187,196652,1747907081126.375,-100,-24,-121
1747907081165.031,196646,1747907081146.25,-81,-33,-115
1747907081184.875,196662,1747907081166.125,-81,-36,-113
1747907081204.75,196660,1747907081185.969,-88,-29,-102
1747907081224.5942,196671,1747907081205.812,-97,-33,-113
1747907081244.437,196691,1747907081225.688,-85,-33,-113
1747907081264.313,196721,1747907081245.625,-95,-33,-113
1747907081284.156,196732,1747907081265.406,-100,-33,-118
1747907081304.031,196764,1747907081285.219,-84,-33,-113
1747907081323.906,196783,1747907081305.094,-88,-33,-114
1747907081343.813,196814,1747907081324.969,-93,-33,-119
1747907081363.594,196862,1747907081344.875,-84,-33,-121
1747907081383.469,196886,1747907081364.687,-91,-29,-111
1747907081403.344,196950,1747907081384.531,-87,-33,-108
1747907081423.156,196967,1747907081404.406,-104,-36,-113
1747907081443.031,196996,1747907081424.2808,-95,-33,-117
1747907081462.875,197017,1747907081444.094,-93,-29,-116
1747907081482.75,197063,1747907081463.969,-96,-49,-122
1747907081502.594,197030,1747907081483.813,-89,-33,-117
1747907081522.438,197022,1747907081503.656,-84,-33,-117
1747907081542.313,196987,1747907081523.531,-93,-34,-121
1747907081562.187,196930,1747907081543.375,-88,-33,-114
1747907081582.031,196884,1747907081563.25,-100,-29,-113
1747907081601.875,196854,1747907081583.094,-95,-33,-114
1747907081621.75,196805,1747907081602.969,-85,-29,-114
1747907081641.625,196790,1747907081622.812,-95,-33,-114
1747907081661.469,196772,1747907081642.781,-89,-33,-112
1747907081681.344,196764,1747907081662.563,-89,-33,-114
1747907081701.188,196770,1747907081682.437,-89,-33,-118
1747907081721.063,196773,1747907081702.281,-98,-26,-115
1747907081740.937,196757,1747907081722.125,-88,-29,-121
1747907081760.75,196762,1747907081742.031,-92,-33,-114
1747907081780.625,196770,1747907081761.813,-97,-33,-113
1747907081800.469,196796,1747907081781.719,-86,-33,-114
1747907081820.312,196786,1747907081801.562,-97,-20,-118
1747907081840.187,196791,1747907081821.406,-97,-33,-113
1747907081860.031,196783,1747907081841.281,-97,-34,-121
1747907081879.906,196808,1747907081861.125,-97,-33,-104
1747907081899.719,196784,1747907081881.031,-97,-33,-113
1747907081919.594,196792,1747907081900.844,-96,-25,-113
1747907081939.437,196801,1747907081920.656,-87,-33,-117
1747907081959.313,196834,1747907081940.531,-89,-33,-109
1747907081979.188,196850,1747907081960.375,-95,-33,-118
1747907081998.969,196888,1747907081980.313,-88,-33,-119
1747907082018.875,196904,1747907082000.063,-96,-26,-121
1747907082038.687,196923,1747907082019.938,-91,-33,-113
1747907082058.563,196934,1747907082039.781,-100,-29,-114
1747907082078.406,196984,1747907082059.656,-89,-29,-114
1747907082098.25,197008,1747907082079.469,-96,-35,-109
1747907082118.125,197007,1747907082099.344,-88,-33,-113
1747907082138.0,197040,1747907082119.219,-97,-33,-109
1747907082157.813,197046,1747907082139.094,-92,-36,-116
1747907082177.687,197068,1747907082158.875,-93,-33,-117
1747907082197.531,197036,1747907082178.781,-101,-33,-114
1747907082217.406,196988,1747907082198.625,-85,-33,-103
1747907082237.219,196937,1747907082218.469,-84,-34,-121
1747907082257.094,196869,1747907082238.281,-88,-33,-121
1747907082276.969,196821,1747907082258.156,-98,-35,-113
1747907082296.812,196788,1747907082278.031,-91,-29,-113
1747907082316.656,196749,1747907082297.875,-89,-33,-114
1747907082336.5,196744,1747907082317.75,-96,-33,-116
1747907082356.375,196719,1747907082337.562,-97,-33,-116
1747907082376.219,196727,1747907082357.406,-85,-29,-110
1747907082396.031,196721,1747907082377.281,-103,-35,-109
1747907082415.906,196724,1747907082397.125,-98,-39,-114
1747907082435.75,196742,1747907082416.969,-91,-33,-106
1747907082455.625,196737,1747907082436.812,-97,-36,-111
1747907082475.437,196725,1747907082456.688,-89,-33,-113
1747907082495.313,196709,1747907082476.531,-84,-29,-114
1747907082515.219,196697,1747907082496.375,-89,-33,-108
1747907082535.031,196675,1747907082516.281,-92,-33,-113
1747907082554.875,196655,1747907082536.094,-97,-26,-112
1747907082574.719,196641,1747907082555.969,-83,-33,-113
1747907082594.594,196656,1747907082575.781,-93,-33,-114
1747907082614.5,196628,1747907082595.687,-89,-34,-108
1747907082634.312,196637,1747907082615.563,-93,-33,-117
1747907082654.156,196660,1747907082635.406,-93,-33,-116
1747907082674.031,196671,1747907082655.344,-100,-33,-118
1747907082693.906,196660,1747907082675.094,-85,-29,-113
1747907082713.719,196662,1747907082695.0,-100,-33,-116
1747907082733.594,196664,1747907082714.844,-97,-33,-113
1747907082753.469,196668,1747907082734.656,-96,-33,-114
1747907082773.375,196668,1747907082754.531,-88,-29,-120
1747907082793.156,196656,1747907082774.375,-97,-33,-111
1747907082813.031,196655,1747907082794.25,-97,-26,-114
1747907082832.875,196676,1747907082814.094,-97,-32,-113
1747907082852.75,196642,1747907082833.9692,-93,-33,-109
1747907082872.563,196602,1747907082853.844,-85,-34,-116
1747907082892.406,196529,1747907082873.688,-93,-33,-120
1747907082912.406,196474,1747907082893.5,-87,-33,-117
1747907082932.125,196402,1747907082913.344,-89,-13,-117
1747907082951.969,196341,1747907082933.187,-89,-25,-112
1747907082971.812,196315,1747907082953.094,-97,-29,-116
1747907082991.656,196261,1747907082972.844,-87,-33,-119
1747907083011.531,196233,1747907082992.813,-98,-34,-121
1747907083031.375,196231,1747907083012.625,-87,-33,-119
1747907083051.188,196238,1747907083032.469,-89,-33,-114
1747907083071.062,196239,1747907083052.281,-97,-34,-116
1747907083091.031,196232,1747907083072.125,-100,-33,-114
1747907083110.719,196241,1747907083092.094,-96,-33,-116
1747907083130.594,196239,1747907083111.844,-90,-29,-127
1747907083150.438,196245,1747907083131.656,-84,-33,-110
1747907083170.281,196230,1747907083151.5,-96,-25,-113
1747907083190.125,196248,1747907083171.344,-93,-33,-114
1747907083209.969,196236,1747907083191.219,-97,-29,-116
1747907083229.813,196225,1747907083211.062,-97,-32,-122
1747907083249.656,196227,1747907083230.906,-85,-29,-116
1747907083269.531,196251,1747907083250.75,-96,-33,-117
1747907083289.344,196271,1747907083270.594,-97,-29,-112
1747907083309.219,196282,1747907083290.406,-89,-34,-113
1747907083329.063,196293,1747907083310.281,-100,-33,-114
1747907083348.906,196326,1747907083330.25,-98,-33,-113
1747907083368.75,196336,1747907083350.0,-89,-33,-114
1747907083388.594,196362,1747907083369.813,-88,-33,-113
1747907083408.469,196400,1747907083389.656,-97,-33,-113
1747907083428.313,196433,1747907083409.531,-89,-33,-114
1747907083448.156,196454,1747907083429.375,-92,-34,-121
1747907083468.031,196475,1747907083449.219,-97,-33,-118
1747907083487.844,196500,1747907083469.094,-97,-33,-114
1747907083507.719,196495,1747907083488.906,-96,-33,-109
1747907083527.531,196489,1747907083508.812,-93,-29,-121
1747907083547.406,196465,1747907083528.625,-98,-33,-116
1747907083567.281,196418,1747907083548.469,-87,-32,-119
1747907083587.125,196388,1747907083568.3442,-100,-29,-102
1747907083606.938,196364,1747907083588.219,-84,-27,-114
1747907083626.812,196321,1747907083608.063,-85,-31,-112
1747907083646.656,196283,1747907083627.875,-84,-33,-110
1747907083666.5,196265,1747907083647.75,-89,-29,-113
1747907083686.313,196238,1747907083667.687,-95,-33,-114
1747907083706.156,196236,1747907083687.437,-90,-33,-109
1747907083726.031,196228,1747907083707.25,-99,-33,-113
1747907083745.906,196245,1747907083727.094,-113,-33,-114
1747907083765.719,196257,1747907083746.969,-87,-33,-114
1747907083785.563,196268,1747907083766.844,-97,-28,-121
1747907083805.406,196269,1747907083786.625,-97,-29,-124
1747907083825.25,196273,1747907083806.5,-80,-36,-116
1747907083845.062,196282,1747907083826.313,-72,-36,-111
1747907083864.938,196261,1747907083846.1558,-86,-33,-114
1747907083884.75,196283,1747907083866.0,-97,-33,-113
1747907083904.594,196270,1747907083885.812,-93,-20,-116
1747907083924.437,196291,1747907083905.688,-97,-33,-112
1747907083944.25,196312,1747907083925.531,-88,-33,-116
1747907083964.094,196314,1747907083945.312,-95,-33,-113
1747907083983.969,196334,1747907083965.187,-87,-33,-118
1747907084003.812,196332,1747907083985.031,-89,-34,-122
1747907084023.656,196353,1747907084004.875,-97,-33,-114
1747907084043.5,196378,1747907084024.719,-93,-28,-121
1747907084063.344,196403,1747907084044.562,-101,-29,-112
1747907084083.188,196441,1747907084064.406,-88,-31,-113
1747907084103.0,196467,1747907084084.25,-98,-29,-113
1747907084122.844,196516,1747907084104.188,-82,-26,-116
1747907084142.719,196536,1747907084123.906,-100,-33,-118
1747907084162.531,196520,1747907084143.781,-89,-29,-118
1747907084182.375,196482,1747907084163.625,-105,-17,-117
1747907084202.219,196436,1747907084183.469,-89,-33,-113
1747907084222.094,196374,1747907084203.3132,-84,-33,-125
1747907084241.9382,196335,1747907084223.156,-93,-33,-93
1747907084261.75,196243,1747907084243.031,-84,-33,-110
1747907084281.594,196184,1747907084262.875,-97,-36,-112
1747907084301.469,196129,1747907084282.656,-92,-29,-112
1747907084321.312,196082,1747907084302.531,-96,-30,-116
1747907084341.125,196046,1747907084322.406,-84,-33,-113
1747907084361.0,196025,1747907084342.281,-98,-33,-113
1747907084380.8442,196007,1747907084362.094,-89,-33,-114
1747907084400.687,195983,1747907084381.938,-85,-29,-115
1747907084420.563,195970,1747907084401.781,-86,-25,-118
1747907084440.438,195936,1747907084421.625,-87,-26,-104
1747907084460.25,195927,1747907084441.469,-65,-32,-112
1747907084480.094,195924,1747907084461.313,-98,-33,-114
1747907084500.031,195911,1747907084481.156,-88,-29,-114
1747907084519.781,195897,1747907084500.969,-93,-24,-121
1747907084539.625,195890,1747907084520.844,-89,-33,-114
1747907084559.5,195876,1747907084540.687,-95,-34,-114
1747907084579.375,195860,1747907084560.563,-84,-31,-109
1747907084599.188,195867,1747907084580.438,-97,-29,-109
1747907084619.0,195870,1747907084600.25,-97,-33,-116
1747907084638.875,195884,1747907084620.062,-93,-33,-112
1747907084658.719,195903,1747907084639.937,-84,-33,-113
1747907084678.531,195923,1747907084659.781,-95,-33,-130
1747907084698.406,195925,1747907084679.656,-92,-33,-113
1747907084718.25,195939,1747907084699.469,-93,-33,-113
1747907084738.094,195952,1747907084719.312,-87,-33,-108
1747907084757.937,195978,1747907084739.156,-95,-33,-114
1747907084777.781,196021,1747907084759.0,-89,-33,-113
1747907084797.594,196050,1747907084778.8442,-85,-33,-117
1747907084817.469,196071,1747907084798.687,-85,-26,-113
1747907084837.281,196098,1747907084818.562,-102,-29,-112
1747907084857.125,196060,1747907084838.375,-96,-33,-116
1747907084877.0,196020,1747907084858.188,-98,-33,-116
1747907084896.813,195973,1747907084878.094,-88,-33,-113
1747907084916.656,195903,1747907084897.875,-85,-33,-125
1747907084936.5,195832,1747907084917.719,-88,-35,-112
1747907084956.312,195773,1747907084937.563,-85,-29,-116
1747907084976.156,195733,1747907084957.375,-100,-33,-118
1747907084996.031,195703,1747907084977.25,-96,-33,-113
1747907085015.8132,195648,1747907084997.094,-85,-28,-122
1747907085035.687,195620,1747907085016.906,-97,-33,-113
1747907085055.5,195589,1747907085036.75,-91,-33,-114
1747907085075.344,195587,1747907085056.594,-89,-25,-116
1747907085095.156,195546,1747907085076.437,-90,-28,-117
1747907085115.0,195529,1747907085096.25,-92,-33,-110
1747907085134.844,195535,1747907085116.094,-80,-36,-112
1747907085154.687,195505,1747907085135.938,-89,-37,-112
1747907085174.5,195499,1747907085155.75,-93,-33,-113
1747907085194.344,195469,1747907085175.625,-89,-33,-117
1747907085214.188,195455,1747907085195.437,-87,-33,-115
1747907085234.031,195449,1747907085215.25,-93,-33,-110
1747907085253.875,195433,1747907085235.094,-84,-33,-121
1747907085273.719,195442,1747907085254.938,-88,-29,-106
1747907085293.531,195444,1747907085274.781,-90,-33,-111
1747907085313.375,195462,1747907085294.594,-86,-33,-112
1747907085333.219,195477,1747907085314.469,-96,-33,-121
1747907085353.062,195468,1747907085334.344,-101,-33,-113
1747907085372.937,195497,1747907085354.156,-84,-28,-113
1747907085392.813,195520,1747907085374.0,-98,-33,-116
1747907085412.625,195538,1747907085393.875,-96,-33,-116
1747907085432.437,195548,1747907085413.687,-85,-33,-113
1747907085452.375,195571,1747907085433.531,-87,-33,-116
1747907085472.156,195601,1747907085453.375,-97,-16,-121
1747907085492.0,195621,1747907085473.25,-88,-33,-116
1747907085511.813,195644,1747907085493.062,-87,-26,-117
1747907085531.656,195670,1747907085512.906,-96,-32,-103
1747907085551.5,195672,1747907085532.75,-97,-29,-121
1747907085571.344,195688,1747907085552.563,-96,-33,-120
1747907085591.125,195656,1747907085572.406,-89,-33,-116
1747907085611.0,195602,1747907085592.25,-97,-33,-110
1747907085630.8442,195540,1747907085612.062,-89,-29,-114
1747907085650.656,195480,1747907085631.906,-89,-33,-110
1747907085670.5,195406,1747907085651.719,-93,-33,-117
1747907085690.344,195373,1747907085671.594,-92,-33,-116
1747907085710.156,195326,1747907085691.406,-84,-33,-132
1747907085730.0,195294,1747907085711.219,-88,-33,-106
1747907085749.844,195262,1747907085731.094,-97,-34,-112
1747907085769.781,195245,1747907085750.906,-88,-33,-114
1747907085789.5,195237,1747907085770.812,-101,-24,-118
1747907085809.375,195230,1747907085790.594,-98,-32,-113
1747907085829.219,195221,1747907085810.437,-85,-33,-116
1747907085849.0,195206,1747907085830.313,-95,-33,-119
1747907085868.875,195179,1747907085850.094,-93,-33,-108
1747907085888.719,195182,1747907085869.937,-84,-33,-113
1747907085908.531,195165,1747907085889.781,-97,-33,-113
1747907085928.375,195146,1747907085909.594,-98,-33,-109
1747907085948.219,195155,1747907085929.469,-84,-33,-116
1747907085968.062,195146,1747907085949.281,-89,-33,-111
1747907085987.906,195156,1747907085969.125,-88,-33,-116
1747907086007.75,195139,1747907085988.969,-94,-33,-106
1747907086027.594,195167,1747907086008.844,-84,-29,-116
1747907086047.406,195175,1747907086028.656,-100,-33,-117
1747907086067.281,195206,1747907086048.469,-90,-33,-111
1747907086087.125,195240,1747907086068.3442,-87,-37,-113
1747907086106.938,195255,1747907086088.219,-97,-33,-112
1747907086126.812,195264,1747907086108.031,-100,-33,-106
1747907086146.656,195296,1747907086127.875,-88,-37,-95
1747907086166.5,195322,1747907086147.781,-95,-33,-113
1747907086186.313,195360,1747907086167.594,-87,-33,-114
1747907086206.187,195411,1747907086187.437,-95,-33,-125
1747907086226.031,195450,1747907086207.25,-96,-33,-110
1747907086245.875,195477,1747907086227.094,-87,-33,-113
1747907086265.719,195482,1747907086246.938,-97,-33,-109
1747907086285.563,195475,1747907086266.844,-88,-29,-116
1747907086305.406,195447,1747907086286.625,-88,-33,-114
1747907086325.281,195414,1747907086306.5,-88,-33,-113
1747907086345.125,195342,1747907086326.375,-95,-33,-113
1747907086364.938,195280,1747907086346.219,-87,-33,-119
1747907086384.813,195223,1747907086366.0,-100,-27,-107
1747907086404.656,195153,1747907086385.906,-97,-33,-112
1747907086424.469,195116,1747907086405.719,-105,-17,-120
1747907086444.344,195072,1747907086425.594,-89,-26,-118
1747907086464.219,195079,1747907086445.437,-89,-33,-108
1747907086484.062,195061,1747907086465.281,-100,-41,-104
1747907086503.906,195056,1747907086485.219,-84,-33,-111
1747907086523.719,195057,1747907086504.969,-84,-31,-115
1747907086543.594,195045,1747907086524.812,-97,-27,-117
1747907086563.438,195040,1747907086544.656,-93,-33,-116
1747907086583.281,195037,1747907086564.5,-82,-41,-113
1747907086603.125,195036,1747907086584.375,-84,-33,-114
1747907086622.969,195017,1747907086604.188,-92,-33,-110
1747907086642.813,195037,1747907086624.062,-97,-29,-113
1747907086662.688,195010,1747907086643.906,-90,-27,-117
1747907086682.562,195032,1747907086663.75,-89,-29,-116
1747907086702.344,195019,1747907086683.656,-96,-33,-116
1747907086722.219,195029,1747907086703.406,-98,-33,-111
1747907086742.156,195049,1747907086723.281,-88,-41,-113
1747907086761.875,195079,1747907086743.125,-97,-2,-116
1747907086781.75,195092,1747907086762.969,-89,-33,-114
1747907086801.562,195116,1747907086782.781,-89,-33,-113
1747907086821.438,195156,1747907086802.656,-98,-39,-129
1747907086841.281,195197,1747907086822.5,-97,-33,-113
1747907086861.125,195240,1747907086842.406,-89,-33,-113
1747907086881.0,195260,1747907086862.188,-89,-31,-116
1747907086900.875,195300,1747907086882.063,-98,-33,-114
1747907086920.656,195349,1747907086901.937,-88,-33,-113
1747907086940.531,195379,1747907086921.75,-89,-33,-117
1747907086960.375,195418,1747907086941.594,-87,-27,-113
1747907086980.25,195423,1747907086961.469,-98,-29,-129
1747907087000.094,195405,1747907086981.313,-98,-33,-113
1747907087019.938,195376,1747907087001.187,-84,-33,-113
1747907087039.781,195344,1747907087021.0,-85,-28,-121
1747907087059.625,195290,1747907087040.844,-90,-33,-113
1747907087079.437,195260,1747907087060.688,-97,-33,-112
1747907087099.281,195213,1747907087080.562,-96,-10,-116
1747907087119.1558,195194,1747907087100.344,-89,-29,-114
1747907087139.0,195180,1747907087120.219,-89,-33,-115
1747907087158.844,195174,1747907087140.094,-97,-32,-129
1747907087178.688,195175,1747907087159.938,-100,-33,-114
1747907087198.5,195166,1747907087179.75,-88,-33,-109
1747907087218.375,195159,1747907087199.562,-95,-35,-125
1747907087238.219,195163,1747907087219.438,-97,-33,-110
1747907087258.0618,195175,1747907087239.313,-84,-36,-116
1747907087277.938,195182,1747907087259.156,-92,-29,-106
1747907087297.781,195176,1747907087279.0,-89,-33,-113
1747907087317.625,195173,1747907087298.844,-93,-33,-116
1747907087337.437,195180,1747907087318.688,-97,-33,-121
1747907087357.312,195185,1747907087338.531,-87,-29,-113
1747907087377.156,195193,1747907087358.375,-92,-33,-112
1747907087397.0,195205,1747907087378.219,-101,-33,-109
1747907087416.812,195229,1747907087398.062,-90,-33,-116
1747907087436.687,195257,1747907087417.938,-96,-33,-117
1747907087456.531,195270,1747907087437.719,-89,-33,-113
1747907087476.344,195321,1747907087457.594,-98,-33,-113
1747907087496.188,195352,1747907087477.406,-87,-33,-112
1747907087516.031,195374,1747907087497.281,-97,-28,-116
1747907087535.875,195398,1747907087517.094,-93,-31,-104
1747907087555.75,195446,1747907087537.0,-95,-33,-113
1747907087575.563,195472,1747907087556.812,-84,-33,-113
1747907087595.406,195494,1747907087576.656,-97,-31,-112
1747907087615.25,195537,1747907087596.469,-88,-33,-121
1747907087635.219,195570,1747907087616.344,-103,-29,-114
1747907087654.938,195601,1747907087636.281,-101,-33,-125
1747907087674.781,195615,1747907087656.0,-89,-31,-119
1747907087694.625,195590,1747907087675.812,-97,-29,-111
1747907087714.469,195553,1747907087695.688,-95,-29,-113
1747907087734.312,195520,1747907087715.531,-98,-33,-112
1747907087754.219,195463,1747907087735.375,-91,-37,-116
1747907087773.969,195436,1747907087755.219,-97,-20,-119
1747907087793.813,195400,1747907087775.062,-100,-33,-108
1747907087813.656,195389,1747907087794.906,-97,-33,-116
1747907087833.5,195374,1747907087814.75,-91,-33,-112
1747907087853.344,195363,1747907087834.594,-96,-28,-114
1747907087873.188,195358,1747907087854.437,-89,-26,-113
1747907087893.0308,195348,1747907087874.281,-97,-29,-113
1747907087912.875,195359,1747907087894.125,-85,-29,-113
1747907087932.687,195359,1747907087913.969,-100,-26,-113
1747907087952.563,195371,1747907087933.781,-88,-33,-114
1747907087972.406,195376,1747907087953.625,-93,-29,-115
1747907087992.219,195374,1747907087973.5,-93,-29,-114
1747907088012.156,195359,1747907087993.313,-98,-26,-118
1747907088031.938,195375,1747907088013.2192,-98,-29,-106
1747907088051.75,195391,1747907088033.0,-97,-35,-114
1747907088071.719,195396,1747907088052.844,-93,-33,-116
1747907088091.406,195436,1747907088072.813,-101,-33,-114
1747907088111.25,195451,1747907088092.5,-95,-41,-100
1747907088131.125,195505,1747907088112.313,-93,-33,-110
1747907088150.969,195536,1747907088132.187,-96,-29,-116
1747907088170.781,195576,1747907088152.062,-88,-26,-121
1747907088190.625,195605,1747907088171.875,-89,-33,-116
1747907088210.469,195622,1747907088191.688,-93,-33,-114
1747907088230.344,195669,1747907088211.594,-84,-33,-110
1747907088250.156,195691,1747907088231.406,-97,-33,-106
1747907088270.0,195751,1747907088251.25,-89,-33,-114
1747907088289.844,195797,1747907088271.063,-95,-25,-114
1747907088309.719,195845,1747907088290.938,-85,-34,-121
1747907088329.531,195864,1747907088310.812,-73,-33,-109
1747907088349.375,195909,1747907088330.625,-92,-33,-113
1747907088369.219,195895,1747907088350.437,-97,-33,-117
1747907088389.094,195882,1747907088370.313,-105,-25,-125
1747907088408.906,195842,1747907088390.188,-87,-31,-116
1747907088428.719,195792,1747907088410.0,-90,-33,-114
1747907088448.594,195750,1747907088429.781,-91,-33,-121
1747907088468.469,195681,1747907088449.656,-81,-33,-113
1747907088488.25,195623,1747907088469.5,-93,-20,-112
1747907088508.094,195600,1747907088489.344,-96,-33,-116
1747907088527.938,195566,1747907088509.156,-87,-33,-106
1747907088547.781,195548,1747907088529.0,-97,-25,-113
1747907088567.656,195566,1747907088548.875,-93,-33,-116
1747907088587.531,195552,1747907088568.75,-88,-33,-114
1747907088607.344,195550,1747907088588.594,-98,-33,-110
1747907088627.188,195528,1747907088608.406,-95,-29,-114
1747907088647.063,195517,1747907088628.25,-84,-33,-118
1747907088666.875,195502,1747907088648.125,-97,-38,-121
1747907088686.75,195494,1747907088667.969,-89,-33,-117
1747907088706.594,195485,1747907088687.813,-87,-33,-111
1747907088726.438,195495,1747907088707.687,-100,-33,-114
1747907088746.281,195481,1747907088727.5,-94,-33,-106
1747907088766.125,195485,1747907088747.375,-88,-27,-114
1747907088786.0,195493,1747907088767.219,-89,-33,-121
1747907088805.844,195494,1747907088787.062,-85,-30,-114
1747907088825.656,195486,1747907088806.937,-90,-33,-116
1747907088845.531,195488,1747907088826.781,-97,-33,-113
1747907088865.406,195531,1747907088846.594,-90,-33,-109
1747907088885.25,195533,1747907088866.469,-89,-33,-113
1747907088905.094,195564,1747907088886.344,-101,-33,-113
1747907088924.969,195581,1747907088906.187,-87,-33,-105
1747907088944.781,195591,1747907088926.031,-96,-33,-113
1747907088964.688,195602,1747907088945.844,-87,-31,-125
1747907088984.5,195624,1747907088965.75,-92,-33,-113
1747907089004.344,195662,1747907088985.625,-92,-33,-114
1747907089024.219,195688,1747907089005.438,-89,-29,-116
1747907089044.062,195699,1747907089025.313,-85,-33,-111
1747907089063.875,195732,1747907089045.156,-109,-33,-116
1747907089083.75,195688,1747907089064.969,-93,-33,-114
1747907089103.594,195672,1747907089084.812,-100,-33,-114
1747907089123.437,195617,1747907089104.656,-93,-26,-121
1747907089143.25,195567,1747907089124.5,-87,-33,-117
1747907089163.125,195510,1747907089144.375,-100,-29,-113
1747907089182.969,195477,1747907089164.25,-88,-29,-113
1747907089202.812,195444,1747907089184.062,-90,-29,-116
1747907089222.656,195407,1747907089203.906,-90,-33,-113
1747907089242.469,195368,1747907089223.75,-86,-33,-111
1747907089262.438,195376,1747907089243.531,-88,-33,-113
1747907089282.25,195366,1747907089263.5,-90,-25,-113
1747907089302.062,195364,1747907089283.281,-100,-26,-113
1747907089321.906,195379,1747907089303.125,-98,-33,-116
1747907089341.719,195366,1747907089322.969,-81,-37,-111
1747907089361.563,195360,1747907089342.781,-84,-33,-110
1747907089381.406,195361,1747907089362.687,-97,-33,-111
