Local: ,2025-05-22 00:00:00+02:00,tz_sec ,7200
Linux Epoch (ms):,1747864800000.0
PPG Timestamp,PPG,ADXL Timestamp,X,Y,Z
1747907674337.656,188055,1747907674318.75,-97,-34,-128
1747907674357.5,188207,1747907674338.563,-76,-23,-125
1747907674377.4058,188360,1747907674358.437,-87,-15,-121
1747907674397.25,188522,1747907674378.344,-92,-18,-124
1747907674417.094,188631,1747907674398.156,-77,-20,-120
1747907674436.969,188711,1747907674418.0,-72,-23,-125
1747907674456.844,188744,1747907674437.906,-80,-19,-125
1747907674476.656,188754,1747907674457.75,-74,-20,-123
1747907674496.531,188789,1747907674477.625,-79,-21,-121
1747907674516.375,188792,1747907674497.469,-84,-16,-129
1747907674536.25,188835,1747907674517.281,-75,-23,-125
1747907674556.094,188845,1747907674537.187,-83,-21,-104
1747907674575.969,188844,1747907674557.0,-76,-25,-118
1747907674595.813,188825,1747907674576.875,-72,-20,-128
1747907674615.688,188821,1747907674596.75,-77,-23,-126
1747907674635.531,188809,1747907674616.687,-85,-18,-128
1747907674655.406,188791,1747907674636.531,-80,-20,-128
1747907674675.25,188763,1747907674656.344,-81,-25,-128
1747907674695.125,188741,1747907674676.188,-80,-24,-126
1747907674715.031,188667,1747907674696.031,-75,-18,-122
1747907674734.812,188548,1747907674715.969,-76,-20,-128
1747907674754.687,188454,1747907674735.75,-73,-20,-124
1747907674774.531,188274,1747907674755.594,-76,-21,-128
1747907674794.375,188122,1747907674775.469,-89,-18,-125
1747907674814.25,187981,1747907674795.344,-77,-25,-127
1747907674834.094,187857,1747907674815.187,-87,-20,-127
1747907674854.0,187779,1747907674835.031,-80,-29,-125
1747907674873.813,187749,1747907674854.906,-73,-23,-122
1747907674893.687,187730,1747907674874.781,-82,-21,-122
1747907674913.562,187757,1747907674894.594,-77,-28,-137
1747907674933.406,187771,1747907674914.469,-88,-20,-125
1747907674953.219,187813,1747907674934.313,-76,-20,-137
1747907674973.094,187827,1747907674954.187,-73,-20,-122
1747907674992.937,187856,1747907674974.031,-73,-25,-128
1747907675012.812,187885,1747907674993.875,-87,-21,-128
1747907675032.625,187891,1747907675013.719,-68,-18,-127
1747907675052.5,187867,1747907675033.594,-84,-20,-125
1747907675072.344,187859,1747907675053.406,-89,-20,-128
1747907675092.219,187844,1747907675073.25,-74,-8,-125
1747907675112.031,187824,1747907675093.156,-85,-22,-121
1747907675131.875,187807,1747907675112.969,-74,-23,-121
1747907675151.75,187799,1747907675132.812,-79,-25,-112
1747907675171.594,187783,1747907675152.656,-89,-20,-125
1747907675191.437,187771,1747907675172.5,-80,-33,-125
1747907675211.281,187765,1747907675192.375,-83,-18,-126
1747907675231.125,187749,1747907675212.219,-74,-25,-128
1747907675251.0,187685,1747907675232.031,-82,-24,-128
1747907675270.812,187638,1747907675251.906,-84,-21,-126
1747907675290.656,187520,1747907675271.781,-84,-19,-120
1747907675310.531,187316,1747907675291.594,-79,-23,-127
1747907675330.406,187089,1747907675311.438,-84,-23,-125
1747907675350.25,186860,1747907675331.312,-77,-18,-122
1747907675370.094,186565,1747907675351.156,-77,-22,-122
1747907675389.937,186201,1747907675371.031,-76,-23,-122
1747907675409.781,185751,1747907675390.844,-85,-18,-122
1747907675429.625,185311,1747907675410.719,-88,-11,-125
1747907675449.469,184862,1747907675430.562,-85,-21,-122
1747907675469.312,184407,1747907675450.406,-77,-25,-126
1747907675489.188,184012,1747907675470.219,-74,-16,-127
1747907675509.063,183732,1747907675490.094,-80,-24,-122
1747907675528.8442,183703,1747907675509.937,-80,-33,-127
1747907675548.687,183886,1747907675529.812,-92,-17,-127
1747907675568.562,184193,1747907675549.625,-84,-16,-125
1747907675588.406,184600,1747907675569.469,-87,-16,-137
1747907675608.219,184982,1747907675589.344,-79,-26,-126
1747907675628.094,185310,1747907675609.1868,-80,-26,-128
1747907675647.969,185649,1747907675629.0,-80,-24,-128
1747907675667.844,186041,1747907675648.906,-89,-20,-125
1747907675687.6882,186483,1747907675668.781,-77,-21,-121
1747907675707.531,186879,1747907675688.594,-72,-25,-121
1747907675727.406,187222,1747907675708.469,-89,-24,-121
1747907675747.25,187510,1747907675728.313,-84,-23,-122
1747907675767.094,187764,1747907675748.156,-90,-13,-121
1747907675786.938,188025,1747907675768.0308,-79,-18,-121
1747907675806.781,188327,1747907675787.844,-68,-20,-128
1747907675826.656,188684,1747907675807.687,-81,-21,-120
1747907675846.469,189050,1747907675827.563,-96,-25,-122
1747907675866.344,189384,1747907675847.406,-90,-16,-128
1747907675886.219,189665,1747907675867.25,-79,-23,-125
1747907675906.0618,189939,1747907675887.156,-87,-23,-125
1747907675925.875,190174,1747907675906.969,-78,-31,-129
1747907675945.75,190416,1747907675926.844,-93,-26,-118
1747907675965.594,190671,1747907675946.687,-79,-24,-120
1747907675985.469,190951,1747907675966.531,-89,-26,-124
1747907676005.312,191243,1747907675986.406,-85,-20,-127
1747907676025.156,191496,1747907676006.25,-79,-24,-125
1747907676045.031,191769,1747907676026.125,-90,-28,-120
1747907676064.9058,192031,1747907676045.937,-77,-23,-121
1747907676084.719,192261,1747907676065.844,-88,-28,-125
1747907676104.562,192497,1747907676085.656,-82,-10,-127
1747907676124.5,192751,1747907676105.5,-89,-22,-125
1747907676144.313,192974,1747907676125.406,-72,-28,-125
1747907676164.125,193181,1747907676145.219,-88,-25,-127
1747907676184.0,193376,1747907676165.094,-80,-25,-122
1747907676203.875,193549,1747907676184.906,-97,-2,-122
1747907676223.75,193715,1747907676204.781,-88,-21,-125
1747907676243.625,193895,1747907676224.656,-80,-25,-125
1747907676263.406,194049,1747907676244.531,-90,-29,-100
1747907676283.281,194225,1747907676264.313,-82,-25,-127
1747907676303.125,194430,1747907676284.188,-87,-24,-125
1747907676322.969,194601,1747907676304.031,-80,-24,-127
1747907676342.844,194808,1747907676323.937,-87,-20,-120
1747907676362.75,194978,1747907676343.75,-80,-26,-121
1747907676382.5632,195162,1747907676363.656,-80,-24,-121
1747907676402.406,195280,1747907676383.5,-88,-26,-126
1747907676422.25,195376,1747907676403.344,-79,-25,-117
1747907676442.125,195455,1747907676423.187,-82,-25,-122
1747907676462.0,195533,1747907676443.063,-77,-21,-118
1747907676481.875,195605,1747907676462.9058,-80,-25,-121
1747907676501.688,195680,1747907676482.781,-78,-21,-112
1747907676521.531,195753,1747907676502.594,-89,-20,-122
1747907676541.406,195847,1747907676522.438,-73,-17,-121
1747907676561.25,195928,1747907676542.313,-90,-22,-122
1747907676581.094,195987,1747907676562.187,-74,-24,-124
1747907676600.969,196060,1747907676582.031,-89,-5,-114
1747907676620.812,196158,1747907676601.875,-85,-21,-124
1747907676640.656,196212,1747907676621.719,-88,-20,-125
1747907676660.531,196321,1747907676641.625,-79,-25,-116
1747907676680.406,196396,1747907676661.437,-89,-20,-122
1747907676700.281,196477,1747907676681.344,-89,-25,-128
1747907676720.094,196579,1747907676701.188,-84,-20,-125
1747907676739.969,196648,1747907676721.031,-77,-24,-122
1747907676759.813,196684,1747907676740.875,-79,-23,-121
1747907676779.687,196752,1747907676760.75,-97,-25,-121
1747907676799.656,196832,1747907676780.656,-92,-26,-124
1747907676819.406,196894,1747907676800.594,-89,-23,-121
1747907676839.281,196966,1747907676820.312,-83,-25,-125
1747907676859.125,197045,1747907676840.187,-90,-21,-122
1747907676878.969,197147,1747907676860.031,-85,-23,-125
1747907676898.813,197221,1747907676879.906,-84,-22,-116
1747907676918.781,197297,1747907676899.719,-72,-29,-124
1747907676938.531,197392,1747907676919.594,-76,-33,-116
1747907676958.375,197455,1747907676939.437,-77,-21,-128
1747907676978.219,197472,1747907676959.344,-82,-20,-127
1747907676998.063,197494,1747907676979.156,-87,-20,-112
1747907677017.938,197460,1747907676999.0,-87,-24,-122
1747907677037.75,197416,1747907677018.844,-80,-26,-108
1747907677057.625,197359,1747907677038.75,-87,-23,-125
1747907677077.469,197278,1747907677058.563,-77,-18,-125
1747907677097.344,197191,1747907677078.406,-85,-25,-121
1747907677117.188,197149,1747907677098.25,-80,-22,-125
1747907677137.031,197123,1747907677118.125,-85,-21,-122
1747907677156.906,197076,1747907677138.0,-74,-25,-122
1747907677176.75,197089,1747907677157.813,-79,-24,-122
1747907677196.594,197047,1747907677177.656,-84,-25,-121
1747907677216.437,197056,1747907677197.531,-81,-27,-128
1747907677236.344,197065,1747907677217.406,-90,-21,-125
1747907677256.25,197079,1747907677237.25,-79,-20,-126
1747907677276.031,197082,1747907677257.125,-80,-18,-128
1747907677295.875,197071,1747907677276.969,-93,-25,-121
1747907677315.75,197077,1747907677296.844,-88,-23,-121
1747907677335.594,197078,1747907677316.688,-77,-32,-129
1747907677355.469,197101,1747907677336.531,-89,-23,-122
1747907677375.313,197083,1747907677356.437,-80,-24,-122
1747907677395.219,197092,1747907677376.25,-77,-24,-124
1747907677415.062,197118,1747907677396.125,-80,-22,-122
1747907677434.906,197135,1747907677415.969,-80,-25,-121
1747907677454.75,197149,1747907677435.812,-84,-24,-121
1747907677474.656,197161,1747907677455.719,-74,-26,-125
1747907677494.5,197161,1747907677475.563,-77,-20,-128
1747907677514.344,197203,1747907677495.406,-84,-20,-128
1747907677534.219,197242,1747907677515.281,-89,-25,-122
1747907677554.062,197297,1747907677535.156,-64,-24,-124
1747907677573.937,197359,1747907677554.969,-79,-25,-127
1747907677593.781,197400,1747907677574.844,-88,-21,-126
1747907677613.625,197367,1747907677594.719,-77,-4,-128
1747907677633.5,197313,1747907677614.562,-79,-23,-124
1747907677653.375,197219,1747907677634.406,-80,-26,-125
1747907677673.156,197094,1747907677654.25,-80,-25,-107
1747907677693.031,196978,1747907677674.094,-84,-21,-121
1747907677712.875,196854,1747907677694.0,-77,-24,-122
1747907677732.75,196737,1747907677713.812,-87,-20,-125
1747907677752.594,196659,1747907677733.656,-83,-23,-121
1747907677772.438,196589,1747907677753.563,-85,-20,-128
1747907677792.313,196497,1747907677773.375,-84,-21,-121
1747907677812.156,196461,1747907677793.219,-80,-25,-125
1747907677832.031,196419,1747907677813.094,-90,-24,-122
1747907677851.844,196398,1747907677832.938,-80,-24,-125
1747907677871.719,196374,1747907677852.781,-81,-20,-121
1747907677891.563,196361,1747907677872.719,-84,-26,-121
1747907677911.437,196328,1747907677892.5,-74,-25,-120
1747907677931.25,196310,1747907677912.344,-77,-23,-121
1747907677951.094,196282,1747907677932.188,-65,-24,-124
1747907677970.969,196265,1747907677952.0,-85,-24,-121
1747907677990.844,196230,1747907677971.875,-88,-25,-125
1747907678010.656,196215,1747907677991.75,-77,-25,-113
1747907678030.5,196176,1747907678011.625,-88,-24,-121
1747907678050.344,196177,1747907678031.4382,-89,-25,-124
1747907678070.219,196169,1747907678051.281,-82,-24,-127
1747907678090.031,196192,1747907678071.125,-80,-23,-114
1747907678109.937,196206,1747907678091.0,-84,-21,-121
1747907678129.75,196241,1747907678110.875,-88,-20,-124
1747907678149.625,196250,1747907678130.688,-77,-20,-127
1747907678169.406,196264,1747907678150.531,-87,-21,-121
1747907678189.281,196280,1747907678170.375,-80,-23,-125
1747907678209.156,196333,1747907678190.219,-84,-25,-121
1747907678229.0,196351,1747907678210.063,-79,-24,-114
1747907678248.844,196370,1747907678229.906,-84,-23,-112
1747907678268.687,196383,1747907678249.781,-74,-24,-125
1747907678288.562,196348,1747907678269.625,-69,-20,-126
1747907678308.469,196242,1747907678289.469,-84,-25,-125
1747907678328.281,196089,1747907678309.375,-89,-25,-125
1747907678348.156,195938,1747907678329.25,-80,-5,-116
1747907678368.031,195805,1747907678349.094,-89,-23,-126
1747907678387.906,195660,1747907678368.969,-89,-22,-128
1747907678407.75,195510,1747907678388.781,-80,-17,-129
1747907678427.625,195385,1747907678408.687,-87,-23,-121
1747907678447.5,195288,1747907678428.562,-81,-25,-124
1747907678467.375,195231,1747907678448.5,-79,-24,-126
1747907678487.219,195195,1747907678468.281,-79,-26,-122
1747907678507.063,195133,1747907678488.156,-77,-24,-122
1747907678526.937,195101,1747907678508.0,-89,-23,-121
1747907678546.875,195041,1747907678527.844,-87,-25,-128
1747907678566.594,195014,1747907678547.781,-94,-25,-125
1747907678586.5,195000,1747907678567.563,-87,-20,-125
1747907678606.344,194955,1747907678587.437,-77,-17,-124
1747907678626.219,194941,1747907678607.281,-97,-26,-124
1747907678646.063,194894,1747907678627.125,-80,-25,-125
1747907678665.906,194898,1747907678647.0,-90,-24,-122
1747907678685.781,194877,1747907678666.812,-78,-33,-116
1747907678705.656,194882,1747907678686.719,-89,-23,-119
1747907678725.5,194863,1747907678706.594,-88,-24,-125
1747907678745.375,194859,1747907678726.438,-79,-24,-135
1747907678765.219,194884,1747907678746.281,-88,-25,-122
1747907678785.094,194902,1747907678766.125,-79,-28,-121
1747907678804.9368,194930,1747907678786.031,-87,-23,-126
1747907678824.781,194967,1747907678805.875,-77,-25,-121
1747907678844.656,195013,1747907678825.7192,-92,-17,-143
1747907678864.531,195034,1747907678845.625,-79,-25,-125
1747907678884.344,195060,1747907678865.437,-84,-23,-126
1747907678904.187,195104,1747907678885.313,-80,-23,-126
1747907678924.063,195148,1747907678905.094,-84,-16,-125
1747907678944.0,195202,1747907678925.0,-77,-24,-122
1747907678963.75,195259,1747907678944.906,-80,-21,-125
1747907678983.625,195307,1747907678964.719,-89,-24,-125
1747907679003.5,195340,1747907678984.5632,-85,-26,-127
1747907679023.375,195304,1747907679004.437,-89,-2,-122
1747907679043.219,195228,1747907679024.281,-76,-25,-122
1747907679063.094,195138,1747907679044.156,-77,-27,-121
1747907679082.938,195027,1747907679063.938,-82,-33,-129
1747907679102.781,194914,1747907679083.906,-80,-25,-124
1747907679122.625,194833,1747907679103.687,-82,-24,-122
1747907679142.5,194750,1747907679123.594,-85,-20,-128
1747907679162.375,194655,1747907679143.438,-78,-24,-124
1747907679182.281,194615,1747907679163.281,-87,-25,-121
1747907679202.063,194580,1747907679183.219,-90,-16,-122
1747907679221.937,194548,1747907679203.0,-72,-24,-122
1747907679241.781,194534,1747907679222.844,-85,-21,-117
1747907679261.656,194531,1747907679242.719,-76,-23,-125
1747907679281.5,194526,1747907679262.563,-88,-21,-121
1747907679301.375,194519,1747907679282.437,-90,-24,-121
1747907679321.219,194511,1747907679302.25,-80,-21,-112
1747907679341.094,194521,1747907679322.156,-80,-23,-122
1747907679360.906,194501,1747907679342.031,-80,-29,-126
1747907679380.781,194513,1747907679361.875,-90,-23,-122
1747907679400.656,194522,1747907679381.719,-76,-26,-122
1747907679420.531,194530,1747907679401.531,-80,-10,-129
1747907679440.375,194517,1747907679421.438,-79,-25,-122
1747907679460.219,194556,1747907679441.344,-78,-24,-121
1747907679480.094,194556,1747907679461.156,-79,-25,-116
1747907679500.0,194588,1747907679481.0,-87,-25,-125
1747907679519.813,194609,1747907679500.875,-80,-18,-125
1747907679539.688,194649,1747907679520.75,-77,-25,-125
1747907679559.562,194697,1747907679540.594,-77,-26,-121
1747907679579.406,194758,1747907679560.469,-80,-25,-121
1747907679599.25,194782,1747907679580.344,-93,-25,-114
1747907679619.188,194824,1747907679600.188,-81,-26,-125
1747907679639.0,194880,1747907679620.094,-81,-25,-125
1747907679658.844,194929,1747907679639.937,-89,-25,-118
1747907679678.719,194986,1747907679659.781,-74,-27,-124
1747907679698.563,195031,1747907679679.656,-91,-25,-121
1747907679718.437,195118,1747907679699.437,-77,-21,-125
1747907679738.281,195171,1747907679719.344,-85,-21,-121
1747907679758.156,195224,1747907679739.219,-93,-16,-127
1747907679778.031,195227,1747907679759.063,-84,-21,-123
1747907679797.875,195223,1747907679778.906,-84,-25,-125
1747907679817.719,195182,1747907679798.812,-74,-32,-129
1747907679837.594,195145,1747907679818.688,-80,-18,-118
1747907679857.438,195098,1747907679838.531,-82,-24,-118
1747907679877.313,195029,1747907679858.375,-76,-26,-128
1747907679897.156,194975,1747907679878.25,-88,-20,-122
1747907679917.0,194949,1747907679898.094,-77,-23,-122
1747907679936.875,194918,1747907679917.969,-89,-23,-121
1747907679956.75,194926,1747907679937.781,-80,-23,-121
1747907679976.562,194923,1747907679957.625,-85,-25,-122
1747907679996.437,194959,1747907679977.5,-80,-18,-127
1747907680016.313,194963,1747907679997.375,-90,-20,-118
1747907680036.25,194977,1747907680017.219,-73,-25,-125
1747907680056.031,195002,1747907680037.0942,-90,-25,-120
1747907680075.875,195019,1747907680057.0,-81,-20,-123
1747907680095.75,195039,1747907680076.813,-85,-17,-117
1747907680115.594,195053,1747907680096.656,-77,-26,-121
1747907680135.438,195071,1747907680116.531,-80,-20,-118
1747907680155.312,195092,1747907680136.375,-84,-23,-114
1747907680175.187,195115,1747907680156.25,-77,-23,-117
1747907680195.0632,195156,1747907680176.094,-80,-25,-121
1747907680214.875,195198,1747907680195.969,-90,-25,-114
1747907680234.75,195241,1747907680215.844,-80,-21,-125
1747907680254.594,195305,1747907680235.656,-82,-24,-122
1747907680274.5,195353,1747907680255.531,-85,-23,-126
1747907680294.313,195393,1747907680275.4058,-80,-22,-125
1747907680314.188,195440,1747907680295.281,-89,-25,-116
1747907680334.062,195507,1747907680315.125,-97,-20,-125
1747907680354.063,195591,1747907680334.969,-81,-24,-121
1747907680373.75,195631,1747907680354.969,-85,-25,-121
1747907680393.594,195730,1747907680374.687,-87,-29,-128
1747907680413.469,195809,1747907680394.531,-80,-18,-121
1747907680433.344,195838,1747907680414.406,-97,-30,-121
1747907680453.156,195930,1747907680434.25,-80,-29,-127
1747907680473.0,195997,1747907680454.094,-84,-23,-121
1747907680492.875,196081,1747907680473.937,-89,-16,-129
1747907680512.719,196161,1747907680493.781,-88,-20,-120
1747907680532.562,196232,1747907680513.625,-77,-20,-125
1747907680552.406,196294,1747907680533.5,-80,-22,-112
1747907680572.2808,196325,1747907680553.344,-82,-24,-118
1747907680592.125,196331,1747907680573.219,-88,-23,-121
1747907680611.969,196307,1747907680593.062,-80,-24,-127
1747907680631.844,196281,1747907680612.938,-80,-20,-125
1747907680651.656,196254,1747907680632.781,-87,-21,-124
1747907680671.562,196219,1747907680652.594,-80,-25,-122
1747907680691.469,196174,1747907680672.5,-89,-26,-121
1747907680711.25,196129,1747907680692.406,-88,-18,-125
1747907680731.125,196104,1747907680712.188,-90,-20,-121
1747907680750.969,196121,1747907680732.031,-89,-20,-122
1747907680770.812,196130,1747907680751.906,-81,-29,-121
1747907680790.656,196153,1747907680771.75,-88,-20,-121
1747907680810.594,196171,1747907680791.594,-80,-25,-122
1747907680830.375,196183,1747907680811.438,-78,-33,-116
1747907680850.25,196211,1747907680831.312,-85,-24,-125
1747907680870.094,196218,1747907680851.156,-80,-23,-121
1747907680889.937,196247,1747907680871.031,-89,-24,-125
1747907680909.813,196271,1747907680890.875,-77,-25,-122
1747907680929.656,196303,1747907680910.719,-87,-25,-121
1747907680949.469,196344,1747907680930.594,-81,-28,-128
1747907680969.344,196378,1747907680950.406,-88,-24,-125
1747907680989.188,196424,1747907680970.281,-90,-28,-122
1747907681009.063,196454,1747907680990.094,-89,-25,-118
1747907681028.906,196511,1747907681009.969,-80,-26,-117
1747907681048.719,196546,1747907681029.875,-87,-25,-121
1747907681068.594,196611,1747907681049.656,-87,-20,-121
1747907681088.469,196670,1747907681069.531,-80,-24,-120
1747907681108.281,196732,1747907681089.406,-79,-26,-121
1747907681128.187,196794,1747907681109.219,-77,-22,-121
1747907681148.062,196866,1747907681129.094,-79,-20,-121
1747907681167.906,196934,1747907681148.938,-95,-33,-128
1747907681187.75,197034,1747907681168.781,-79,-25,-122
1747907681207.594,197089,1747907681188.687,-77,-18,-125
1747907681227.469,197173,1747907681208.5,-76,-24,-136
1747907681247.344,197242,1747907681228.344,-84,-25,-121
1747907681267.156,197301,1747907681248.25,-89,-21,-122
1747907681287.062,197389,1747907681268.125,-80,-26,-128
1747907681306.906,197445,1747907681287.969,-89,-23,-120
1747907681326.75,197556,1747907681307.844,-81,-25,-126
1747907681346.594,197635,1747907681327.688,-89,-21,-126
1747907681366.469,197684,1747907681347.562,-80,-26,-124
1747907681386.312,197702,1747907681367.375,-95,-24,-121
1747907681406.187,197707,1747907681387.25,-80,-21,-118
1747907681426.031,197688,1747907681407.094,-90,-20,-121
1747907681445.875,197680,1747907681427.0,-76,-26,-122
1747907681465.719,197674,1747907681446.812,-89,-26,-121
1747907681485.594,197687,1747907681466.625,-88,-28,-126
1747907681505.406,197678,1747907681486.5,-81,-8,-126
1747907681525.281,197685,1747907681506.375,-80,-20,-128
1747907681545.187,197692,1747907681526.187,-81,-32,-121
1747907681565.0,197714,1747907681546.031,-77,-33,-100
1747907681584.812,197741,1747907681565.875,-84,-24,-127
1747907681604.688,197782,1747907681585.75,-80,-21,-121
1747907681624.531,197823,1747907681605.594,-87,-21,-125
1747907681644.406,197850,1747907681625.437,-80,-18,-122
1747907681664.219,197894,1747907681645.312,-88,-28,-121
1747907681684.062,197959,1747907681665.156,-79,-25,-121
1747907681703.938,197982,1747907681685.0,-85,-24,-122
1747907681723.781,198021,1747907681704.875,-85,-22,-121
1747907681743.625,198076,1747907681724.687,-88,-20,-124
1747907681763.5,198084,1747907681744.562,-81,-23,-120
1747907681783.313,198126,1747907681764.406,-85,-24,-113
1747907681803.188,198142,1747907681784.219,-77,-24,-112
1747907681823.0,198196,1747907681804.125,-93,-24,-116
1747907681842.875,198236,1747907681823.937,-89,-15,-121
1747907681862.719,198288,1747907681843.813,-82,-24,-128
1747907681882.625,198314,1747907681863.625,-89,-29,-121
1747907681902.406,198370,1747907681883.469,-84,-25,-114
1747907681922.406,198455,1747907681903.344,-84,-20,-125
1747907681942.125,198539,1747907681923.187,-80,-24,-121
1747907681962.0,198593,1747907681943.031,-87,-20,-125
1747907681981.813,198657,1747907681962.9058,-79,-25,-121
1747907682001.688,198738,1747907681982.781,-89,-20,-121
1747907682021.531,198821,1747907682002.625,-77,-24,-121
1747907682041.406,198866,1747907682022.469,-84,-24,-122
1747907682061.219,198955,1747907682042.313,-77,-24,-122
1747907682081.094,199033,1747907682062.156,-89,-22,-127
1747907682100.937,199110,1747907682082.031,-77,-25,-125
1747907682120.812,199197,1747907682101.875,-77,-23,-125
1747907682140.625,199295,1747907682121.719,-88,-23,-120
1747907682160.5,199361,1747907682141.563,-80,-17,-123
1747907682180.344,199428,1747907682161.437,-91,-24,-118
1747907682200.187,199461,1747907682181.25,-80,-26,-124
1747907682220.031,199499,1747907682201.125,-90,-20,-120
1747907682239.875,199479,1747907682220.938,-79,-29,-112
1747907682259.844,199487,1747907682240.875,-89,-20,-122
1747907682279.594,199461,1747907682260.656,-79,-23,-129
1747907682299.469,199457,1747907682280.531,-89,-25,-125
1747907682319.313,199449,1747907682300.406,-80,-22,-124
1747907682339.156,199492,1747907682320.25,-85,-24,-121
1747907682359.0,199513,1747907682340.125,-89,-25,-125
1747907682378.875,199544,1747907682359.937,-76,-33,-119
1747907682398.6868,199544,1747907682379.781,-76,-33,-119
1747907682438.281,149700,1747907682419.438,-87,-21,-125
1747907682458.125,149743,1747907682439.344,-88,-26,-126
1747907682478.0,149764,1747907682459.219,-79,-25,-122
1747907682497.844,149794,1747907682479.094,-84,-25,-125
1747907682517.688,149817,1747907682498.938,-82,-21,-116
1747907682537.563,149865,1747907682518.781,-81,-33,-114
1747907682557.406,149904,1747907682538.625,-85,-33,-121
1747907682577.281,149931,1747907682558.5,-84,-16,-127
1747907682597.156,149975,1747907682578.3132,-81,-28,-118
1747907682617.0,150008,1747907682598.219,-87,-29,-125
1747907682636.844,150045,1747907682618.094,-79,-25,-129
1747907682656.687,150094,1747907682637.938,-84,-33,-120
1747907682676.562,150142,1747907682657.781,-84,-27,-123
1747907682696.438,150198,1747907682677.656,-93,-25,-121
1747907682716.281,150245,1747907682697.469,-80,-33,-122
1747907682736.094,150288,1747907682717.375,-80,-29,-130
1747907682756.0,150344,1747907682737.188,-97,-29,-120
1747907682775.844,150403,1747907682757.063,-77,-25,-120
1747907682795.75,150470,1747907682776.937,-73,-32,-116
1747907682815.562,150524,1747907682796.781,-89,-26,-132
1747907682835.406,150571,1747907682816.625,-84,-33,-125
1747907682855.281,150649,1747907682836.469,-89,-33,-122
1747907682875.094,150704,1747907682856.344,-88,-25,-125
1747907682894.938,150768,1747907682876.219,-81,-26,-122
1747907682914.781,150817,1747907682896.031,-87,-29,-127
1747907682934.656,150886,1747907682915.875,-80,-25,-121
1747907682954.469,150966,1747907682935.719,-80,-27,-137
1747907682974.344,151024,1747907682955.594,-79,-25,-120
1747907682994.219,151076,1747907682975.406,-85,-25,-121
1747907683014.062,151113,1747907682995.281,-79,-33,-121
1747907683033.906,151163,1747907683015.125,-89,-25,-121
1747907683053.781,151163,1747907683035.0,-82,-26,-125
1747907683073.625,151154,1747907683054.844,-80,-24,-124
1747907683093.5,151152,1747907683074.687,-77,-26,-119
1747907683113.312,151157,1747907683094.563,-81,-29,-127
1747907683133.188,151157,1747907683114.438,-80,-29,-122
1747907683153.031,151163,1747907683134.25,-78,-25,-124
1747907683172.906,151183,1747907683154.094,-79,-28,-132
1747907683192.719,151189,1747907683174.0,-85,-27,-121
1747907683212.594,151206,1747907683193.813,-77,-25,-121
1747907683232.469,151229,1747907683213.687,-86,-33,-121
1747907683252.313,151266,1747907683233.531,-92,-33,-124
1747907683272.156,151298,1747907683253.406,-79,-26,-122
1747907683292.031,151332,1747907683273.281,-94,-26,-121
1747907683311.906,151370,1747907683293.094,-80,-27,-145
1747907683331.75,151388,1747907683312.969,-80,-29,-119
1747907683351.594,151429,1747907683332.844,-88,-25,-125
1747907683371.469,151451,1747907683352.688,-85,-29,-118
1747907683391.344,151490,1747907683372.531,-90,-25,-121
1747907683411.188,151514,1747907683392.406,-80,-29,-121
1747907683431.031,151553,1747907683412.25,-80,-29,-125
1747907683450.875,151599,1747907683432.125,-80,-27,-122
1747907683470.75,151626,1747907683451.969,-80,-25,-125
1747907683490.656,151666,1747907683471.844,-80,-23,-116
1747907683510.531,151715,1747907683491.719,-80,-29,-121
1747907683530.375,151746,1747907683511.625,-80,-25,-117
1747907683550.219,151812,1747907683531.4382,-80,-33,-124
1747907683570.125,151858,1747907683551.281,-89,-25,-125
1747907683589.906,151914,1747907683571.156,-81,-16,-121
1747907683609.75,151961,1747907683591.0,-80,-21,-122
1747907683629.625,152013,1747907683610.844,-81,-26,-129
1747907683649.469,152094,1747907683630.688,-80,-33,-114
1747907683669.313,152142,1747907683650.625,-90,-21,-121
1747907683689.188,152199,1747907683670.406,-80,-29,-116
1747907683709.062,152258,1747907683690.281,-79,-25,-121
1747907683728.937,152336,1747907683710.125,-87,-29,-116
1747907683748.781,152391,1747907683729.969,-80,-27,-121
1747907683768.625,152452,1747907683749.906,-80,-21,-120
1747907683788.469,152519,1747907683769.656,-84,-26,-121
1747907683808.344,152575,1747907683789.563,-79,-25,-121
1747907683828.188,152648,1747907683809.406,-90,-25,-122
1747907683848.031,152700,1747907683829.281,-81,-26,-129
1747907683867.906,152731,1747907683849.125,-84,-29,-121
1747907683887.781,152767,1747907683868.969,-80,-29,-120
1747907683907.594,152760,1747907683888.844,-88,-26,-121
1747907683927.469,152773,1747907683908.719,-72,-24,-121
1747907683947.313,152771,1747907683928.531,-89,-29,-114
1747907683967.156,152769,1747907683948.406,-80,-33,-121
1747907683987.0,152793,1747907683968.25,-90,-16,-115
1747907684006.875,152786,1747907683988.125,-82,-25,-122
1747907684026.719,152801,1747907684007.937,-88,-8,-121
1747907684046.594,152827,1747907684027.781,-89,-26,-129
1747907684066.437,152832,1747907684047.656,-80,-29,-129
1747907684086.281,152861,1747907684067.563,-92,-8,-133
1747907684106.156,152879,1747907684087.344,-80,-29,-120
1747907684126.0,152917,1747907684107.219,-92,-25,-119
1747907684145.812,152939,1747907684127.094,-84,-33,-118
1747907684165.687,152974,1747907684146.938,-93,-29,-125
1747907684185.563,153001,1747907684166.75,-88,-21,-121
1747907684205.406,153035,1747907684186.625,-78,-29,-116
1747907684225.25,153052,1747907684206.469,-89,-26,-121
1747907684245.094,153081,1747907684226.344,-82,-25,-121
1747907684264.937,153134,1747907684246.188,-96,-29,-124
1747907684284.813,153168,1747907684266.031,-89,-25,-122
1747907684304.688,153195,1747907684285.906,-90,-27,-122
1747907684324.5,153225,1747907684305.719,-78,-16,-127
1747907684344.375,153254,1747907684325.594,-90,-29,-129
1747907684364.219,153293,1747907684345.438,-92,-25,-132
1747907684384.094,153343,1747907684365.312,-85,-25,-120
1747907684403.937,153393,1747907684385.156,-80,-25,-121
1747907684423.781,153432,1747907684405.0,-90,-29,-121
1747907684443.656,153472,1747907684424.844,-81,-25,-122
1747907684463.531,153530,1747907684444.719,-77,-29,-117
1747907684483.375,153570,1747907684464.625,-82,-22,-125
1747907684503.219,153630,1747907684484.438,-89,-25,-125
1747907684523.156,153662,1747907684504.313,-77,-25,-121
1747907684542.969,153709,1747907684524.25,-82,-25,-127
1747907684562.813,153762,1747907684544.031,-85,-25,-121
1747907684582.687,153826,1747907684563.875,-85,-29,-122
1747907684602.562,153860,1747907684583.781,-80,-33,-116
1747907684622.406,153909,1747907684603.625,-80,-29,-125
1747907684642.281,153981,1747907684623.5,-84,-25,-116
1747907684662.125,154052,1747907684643.375,-98,-16,-121
1747907684682.0,154108,1747907684663.188,-84,-29,-118
1747907684701.813,154136,1747907684683.063,-93,-25,-118
1747907684721.688,154155,1747907684702.9368,-79,-32,-137
1747907684741.594,154186,1747907684722.781,-89,-25,-121
1747907684761.437,154195,1747907684742.656,-77,-25,-125
1747907684781.25,154180,1747907684762.5,-76,-25,-128
1747907684801.125,154185,1747907684782.375,-90,-29,-130
1747907684820.969,154177,1747907684802.219,-80,-25,-116
1747907684840.844,154183,1747907684822.063,-92,-25,-114
1747907684860.687,154197,1747907684841.906,-77,-22,-122
1747907684880.531,154193,1747907684861.812,-96,-26,-116
1747907684900.4058,154202,1747907684881.625,-87,-25,-122
1747907684920.281,154218,1747907684901.469,-79,-29,-116
1747907684940.094,154232,1747907684921.375,-80,-25,-122
1747907684959.938,154251,1747907684941.188,-80,-25,-125
1747907684979.875,154283,1747907684961.0,-80,-25,-129
1747907684999.687,154313,1747907684980.906,-89,-6,-125
1747907685019.531,154322,1747907685000.75,-77,-27,-113
1747907685039.375,154354,1747907685020.625,-98,-29,-122
1747907685059.25,154370,1747907685040.437,-89,-33,-112
1747907685079.094,154375,1747907685060.375,-84,-26,-121
1747907685098.937,154433,1747907685080.188,-78,-33,-126
1747907685118.812,154455,1747907685100.031,-79,-29,-125
1747907685138.688,154469,1747907685119.875,-88,-25,-122
1747907685158.563,154513,1747907685139.75,-81,-29,-116
1747907685178.375,154539,1747907685159.656,-92,-25,-119
1747907685198.25,154579,1747907685179.469,-79,-29,-129
1747907685218.094,154594,1747907685199.313,-85,-26,-116
1747907685237.969,154651,1747907685219.187,-84,-25,-122
1747907685257.812,154682,1747907685239.031,-93,-25,-119
1747907685277.656,154719,1747907685258.938,-84,-25,-122
1747907685297.531,154769,1747907685278.75,-74,-25,-127
1747907685317.375,154807,1747907685298.594,-82,-25,-122
1747907685337.219,154849,1747907685318.437,-72,-22,-132
1747907685357.094,154910,1747907685338.312,-89,-25,-122
1747907685376.969,154938,1747907685358.125,-77,-33,-125
1747907685396.813,155000,1747907685378.031,-77,-16,-128
1747907685416.656,155033,1747907685397.875,-83,-33,-121
1747907685436.5,155092,1747907685417.75,-71,-29,-121
1747907685456.375,155137,1747907685437.563,-89,-29,-116
1747907685476.219,155180,1747907685457.438,-93,-29,-129
1747907685496.094,155244,1747907685477.281,-92,-33,-122
1747907685515.938,155279,1747907685497.125,-79,-25,-131
1747907685535.781,155339,1747907685517.0,-81,-27,-121
1747907685555.656,155339,1747907685536.844,-79,-25,-121
1747907685575.5,155347,1747907685556.719,-97,-33,-118
1747907685595.469,155339,1747907685576.594,-89,-26,-124
1747907685615.187,155330,1747907685596.531,-89,-25,-121
1747907685635.062,155317,1747907685616.281,-77,-33,-136
1747907685654.938,155303,1747907685636.156,-82,-25,-121
1747907685674.781,155303,1747907685656.0,-97,-33,-124
1747907685694.625,155282,1747907685675.844,-80,-28,-121
1747907685714.469,155272,1747907685695.719,-83,-25,-124
1747907685734.344,155294,1747907685715.563,-89,-31,-113
1747907685754.188,155294,1747907685735.437,-80,-26,-116
1747907685774.031,155297,1747907685755.25,-77,-36,-122
1747907685793.875,155337,1747907685775.094,-89,-25,-127
1747907685813.812,155395,1747907685794.938,-77,-25,-121
1747907685833.563,155501,1747907685814.844,-89,-20,-134
1747907685853.438,155817,1747907685834.687,-82,-33,-132
1747907685873.312,156117,1747907685854.5,-97,-41,-142
1747907685893.156,156337,1747907685874.375,-111,-42,-142
1747907685913.0,156544,1747907685894.219,-109,-26,-174
1747907685932.906,156722,1747907685914.062,-120,-8,-178
1747907685952.719,156928,1747907685933.969,-135,15,-178
1747907685972.594,157178,1747907685953.781,-122,23,-188
1747907685992.4368,157499,1747907685973.656,-122,44,-201
1747907686012.313,157666,1747907685993.531,-129,44,-230
1747907686032.188,157403,1747907686013.375,-144,15,-287
1747907686052.031,157077,1747907686033.25,-149,-9,-325
1747907686071.875,156825,1747907686053.094,-109,-8,-337
1747907686091.719,156481,1747907686072.938,-33,-20,-314
1747907686111.594,156223,1747907686092.812,27,0,-313
1747907686131.469,156019,1747907686112.656,39,0,-290
1747907686151.312,155826,1747907686132.5632,38,19,-292
1747907686171.156,155460,1747907686152.375,-5,39,-276
1747907686191.031,154831,1747907686172.25,-21,14,-256
1747907686210.875,154338,1747907686192.094,-16,-9,-200
1747907686230.719,153995,1747907686211.969,1,-25,-144
1747907686250.594,153944,1747907686231.813,23,-49,-60
1747907686270.438,154221,1747907686251.625,59,-63,5
1747907686290.313,154642,1747907686271.531,73,-73,87
1747907686310.156,155106,1747907686291.344,108,-82,147
1747907686330.031,155600,1747907686311.219,118,-97,171
1747907686349.875,155874,1747907686331.094,136,-121,161
1747907686369.813,155834,1747907686350.969,115,-105,118
1747907686389.594,155898,1747907686370.938,65,-65,68
1747907686409.406,155820,1747907686390.656,14,-62,55
1747907686429.281,155279,1747907686410.469,-26,-61,92
1747907686449.125,154904,1747907686430.375,-65,38,140
1747907686468.969,154656,1747907686450.219,-122,205,123
1747907686488.875,154208,1747907686470.094,-169,415,14
1747907686508.687,153955,1747907686489.938,-245,384,-160
1747907686528.563,153711,1747907686509.7808,-245,275,-277
1747907686548.438,153541,1747907686529.656,-206,223,-303
1747907686568.312,153562,1747907686549.531,-164,195,-284
1747907686588.156,153713,1747907686569.375,-115,190,-272
1747907686608.0,153975,1747907686589.219,-92,179,-239
1747907686627.844,154555,1747907686609.094,-84,119,-234
1747907686647.719,155211,1747907686628.937,-96,55,-252
1747907686667.594,155634,1747907686648.781,-97,22,-253
1747907686687.469,156033,1747907686668.656,-66,0,-250
1747907686707.313,156409,1747907686688.531,-55,-17,-275
1747907686727.156,156786,1747907686708.375,-31,-29,-289
1747907686747.031,157145,1747907686728.25,-32,-26,-304
1747907686766.906,157553,1747907686748.125,-49,-28,-313
1747907686786.75,157922,1747907686767.969,-39,-26,-301
1747907686806.594,158320,1747907686787.812,-10,-24,-296
1747907686826.469,158764,1747907686807.687,-9,-29,-287
1747907686846.312,159286,1747907686827.531,9,-25,-276
1747907686866.156,159767,1747907686847.375,-9,-16,-248
1747907686886.031,160158,1747907686867.188,0,-28,-205
1747907686905.875,160447,1747907686887.062,27,-33,-144
1747907686925.75,160701,1747907686906.969,52,-37,-105
1747907686945.594,160955,1747907686926.813,51,-40,-68
1747907686965.438,161298,1747907686946.656,51,-57,-16
1747907686985.313,161515,1747907686966.5,48,-97,27
1747907687005.156,161631,1747907686986.375,35,-127,38
1747907687025.0,161764,1747907687006.313,31,-124,39
1747907687044.875,161911,1747907687026.063,38,-105,50
1747907687064.719,162040,1747907687045.937,28,-83,46
1747907687084.594,162453,1747907687065.812,0,-64,28
1747907687104.406,162940,1747907687085.656,-72,-34,-8
1747907687124.281,163341,1747907687105.5,-114,47,-49
1747907687144.125,163741,1747907687125.375,-128,159,-121
1747907687164.0,163996,1747907687145.187,-116,223,-210
1747907687183.844,163539,1747907687165.062,-79,243,-272
1747907687203.687,162737,1747907687184.906,-25,198,-337
1747907687223.563,162049,1747907687204.75,-12,153,-345
1747907687243.406,161390,1747907687224.656,-12,175,-333
1747907687263.25,160796,1747907687244.469,-25,191,-288
1747907687283.094,160211,1747907687264.344,-12,182,-262
1747907687302.937,159542,1747907687284.156,-36,159,-226
1747907687322.813,158232,1747907687304.031,-1,135,-221
1747907687342.688,157430,1747907687323.906,-109,70,-248
1747907687362.5,156877,1747907687343.75,-92,41,-246
1747907687382.375,156556,1747907687363.594,-45,46,-260
1747907687402.219,157119,1747907687383.438,16,70,-225
1747907687422.031,157645,1747907687403.281,-25,59,-189
1747907687441.906,156227,1747907687423.125,3,59,-160
1747907687461.75,159263,1747907687442.969,12,55,-178
1747907687481.594,160511,1747907687462.813,-32,7,-228
1747907687501.438,156784,1747907687482.687,-76,15,-176
1747907687521.281,162942,1747907687502.562,-40,12,44
1747907687541.156,164483,1747907687522.375,119,-14,31
1747907687561.062,171483,1747907687542.25,187,58,-92
1747907687580.844,189634,1747907687562.156,156,31,-152
1747907687600.719,217239,1747907687581.937,103,7,-105
1747907687620.563,229165,1747907687601.781,38,-29,-86
1747907687640.406,214067,1747907687621.625,-41,-49,-97
1747907687660.25,175780,1747907687641.469,-71,-29,-121
1747907687680.125,158563,1747907687661.344,-121,15,-100
1747907687699.938,156179,1747907687681.187,-129,47,-72
1747907687719.812,155239,1747907687701.031,-136,105,-140
1747907687739.656,152555,1747907687720.875,-121,147,-144
1747907687759.5,152068,1747907687740.781,-117,215,-194
1747907687779.406,151849,1747907687760.562,-164,271,-243
1747907687799.25,151503,1747907687780.469,-153,252,-228
1747907687819.094,151134,1747907687800.313,-153,219,-245
1747907687838.937,150560,1747907687820.188,-138,171,-196
1747907687858.813,149885,1747907687840.0,-122,153,-126
1747907687878.688,149976,1747907687859.906,-12,143,-77
1747907687898.5,150549,1747907687879.781,145,99,-68
1747907687918.344,152194,1747907687899.625,130,147,-48
1747907687938.219,153488,1747907687919.438,216,128,0
1747907687958.094,154388,1747907687939.281,289,121,-13
1747907687977.906,154992,1747907687959.156,289,47,-111
1747907687997.75,154873,1747907687979.063,204,-25,-233
1747907688017.625,153734,1747907687998.813,148,-79,-251
1747907688037.469,151255,1747907688018.687,140,-113,-153
1747907688057.313,149020,1747907688038.531,102,-105,-121
1747907688077.187,147383,1747907688058.438,79,-114,-135
1747907688097.0,146859,1747907688078.281,96,-71,-100
1747907688116.875,147609,1747907688098.094,79,-15,-65
1747907688136.781,147747,1747907688117.937,20,11,-16
1747907688156.563,147883,1747907688137.812,-25,56,-36
1747907688176.406,146816,1747907688157.625,-77,63,-86
1747907688196.25,144919,1747907688177.469,-113,85,-97
1747907688216.125,145051,1747907688197.313,-124,147,-161
1747907688235.969,145168,1747907688217.219,-163,207,-197
1747907688255.812,144938,1747907688237.031,-152,191,-201
1747907688275.687,144466,1747907688256.906,-151,168,-173
1747907688295.563,143756,1747907688276.75,-88,151,-159
1747907688315.375,143280,1747907688296.625,-66,139,-130
1747907688335.25,143089,1747907688316.437,-57,154,-138
1747907688355.094,142591,1747907688336.313,14,161,-154
1747907688374.969,142220,1747907688356.156,31,151,-169
1747907688394.813,141755,1747907688376.031,-34,135,-149
1747907688414.656,143748,1747907688395.875,-20,143,-125
1747907688434.531,142748,1747907688415.844,22,79,-121
1747907688454.406,141024,1747907688435.594,179,-49,-57
1747907688474.25,140481,1747907688455.469,287,-18,-48
1747907688494.094,141091,1747907688475.281,287,46,-158
1747907688513.969,142989,1747907688495.156,240,12,-264
1747907688533.812,143789,1747907688515.031,244,-17,-227
1747907688553.656,144614,1747907688534.906,192,-17,-132
1747907688573.5,145616,1747907688554.75,99,-13,-84
1747907688593.344,145881,1747907688574.562,-20,14,-52
1747907688613.219,145580,1747907688594.438,-125,24,-37
1747907688633.031,144786,1747907688614.281,-168,63,-50
1747907688652.938,145305,1747907688634.094,-110,60,-136
1747907688672.75,145571,1747907688654.0,-162,47,-205
1747907688692.625,144745,1747907688673.844,-193,63,-186
1747907688712.437,143844,1747907688693.719,-121,123,-168
1747907688732.281,142227,1747907688713.531,-127,183,-181
1747907688752.156,141921,1747907688733.375,192,7,-174
1747907688772.0,141931,1747907688753.219,102,209,-114
1747907688791.844,137813,1747907688773.062,-8,215,-220
1747907688811.687,132571,1747907688792.969,-96,159,-228
1747907688831.531,133173,1747907688812.781,-137,211,-89
1747907688851.375,136523,1747907688832.625,-77,118,-5
1747907688871.219,141539,1747907688852.437,39,91,35
1747907688891.062,144580,1747907688872.313,152,111,17
1747907688910.937,144265,1747907688892.188,199,102,-86
1747907688930.781,144055,1747907688912.0,131,79,-139
1747907688950.625,144656,1747907688931.875,49,76,-169
1747907688970.469,141316,1747907688951.719,6,54,-164
1747907688990.375,140298,1747907688971.563,-16,63,-161
1747907689010.187,139607,1747907688991.469,-72,89,-189
1747907689030.031,140491,1747907689011.281,-80,31,-229
1747907689049.875,140259,1747907689031.094,-248,-106,-192
1747907689069.75,139525,1747907689050.969,-4,-13,-166
1747907689089.594,138946,1747907689070.813,46,18,-150
1747907689109.438,139541,1747907689090.688,32,15,-143
1747907689129.281,139188,1747907689110.531,78,-15,-201
1747907689149.125,137639,1747907689130.344,-4,119,-220
1747907689169.0,138483,1747907689150.188,-17,293,-81
1747907689188.812,137077,1747907689170.063,-15,147,-66
1747907689208.688,136553,1747907689189.9058,-47,15,-65
1747907689228.563,138349,1747907689209.781,-56,95,-76
1747907689248.406,140222,1747907689229.625,-18,143,-146
1747907689268.219,140668,1747907689249.5,-43,89,-177
1747907689288.094,139775,1747907689269.281,-90,64,-177
1747907689307.969,137843,1747907689289.156,-112,52,-149
1747907689327.812,136734,1747907689309.031,-93,48,-193
1747907689347.656,134947,1747907689328.906,-93,28,-168
1747907689367.469,134105,1747907689348.719,-68,7,-148
1747907689387.313,133981,1747907689368.531,-40,39,-133
1747907689407.281,133709,1747907689388.344,-66,88,-127
1747907689427.031,133648,1747907689408.375,-71,79,-132
1747907689446.875,133658,1747907689428.094,-32,63,-158
1747907689466.75,133688,1747907689447.938,-20,48,-173
1747907689486.594,133778,1747907689467.812,-4,41,-155
1747907689506.438,134168,1747907689487.656,23,60,-134
1747907689526.281,134745,1747907689507.531,-1,69,-113
1747907689546.125,134882,1747907689527.344,-24,79,-122
1747907689566.0,135274,1747907689547.156,-29,111,-153
1747907689585.844,136303,1747907689567.094,-24,115,-164
1747907689605.687,136813,1747907689586.937,3,91,-144
1747907689625.562,136809,1747907689606.781,3,42,-145
1747907689645.438,136517,1747907689626.625,12,23,-132
1747907689665.281,136127,1747907689646.5,-24,43,-153
1747907689685.125,135725,1747907689666.375,-45,39,-168
1747907689705.031,135502,1747907689686.188,-55,51,-169
1747907689724.812,135835,1747907689706.094,-45,68,-183
1747907689744.688,136247,1747907689725.906,-40,51,-173
1747907689764.531,136787,1747907689745.781,-34,63,-148
1747907689784.375,137171,1747907689765.688,-35,31,-144
1747907689804.25,137351,1747907689785.469,-39,31,-153
1747907689824.125,137520,1747907689805.313,-50,24,-148
1747907689843.9382,137619,1747907689825.187,-24,5,-141
1747907689863.844,137764,1747907689845.031,-46,7,-138
1747907689883.719,137980,1747907689864.906,-66,-2,-161
1747907689903.531,138239,1747907689884.719,-56,-4,-160
1747907689923.375,138355,1747907689904.625,-56,0,-153
1747907689943.219,138331,1747907689924.469,-66,0,-158
1747907689963.094,138183,1747907689944.313,-60,3,-160
1747907689982.969,137899,1747907689964.156,-55,15,-193
1747907690002.781,137553,1747907689984.031,-53,13,-196
1747907690022.656,137136,1747907690003.875,-76,9,-189
1747907690042.531,136687,1747907690023.75,-63,15,-185
1747907690062.375,136289,1747907690043.625,-62,36,-168
1747907690082.219,135986,1747907690063.438,-65,31,-153
1747907690102.156,135756,1747907690083.281,-82,12,-145
1747907690121.969,135474,1747907690103.219,-80,7,-145
1747907690141.781,135130,1747907690123.031,-64,-7,-138
1747907690161.656,134804,1747907690142.875,-57,-9,-140
1747907690181.469,134537,1747907690162.75,-65,-17,-148
1747907690201.344,134302,1747907690182.562,-64,-17,-152
1747907690221.187,134112,1747907690202.437,-64,-18,-142
1747907690241.031,133943,1747907690222.281,-54,-25,-144
1747907690261.0,133991,1747907690242.125,-61,-17,-121
1747907690280.719,134128,1747907690261.937,-52,11,-124
1747907690300.594,134090,1747907690281.812,-74,-4,-127
1747907690320.437,133999,1747907690301.688,-68,3,-132
1747907690340.281,133873,1747907690321.531,-84,0,-154
1747907690360.156,133755,1747907690341.406,-104,-5,-173
1747907690380.0,133665,1747907690361.25,-85,-10,-169
1747907690399.844,133555,1747907690381.094,-74,-23,-140
1747907690419.719,133436,1747907690400.938,-64,-25,-130
1747907690439.625,133309,1747907690420.781,-54,-23,-125
1747907690459.438,133189,1747907690440.656,-56,-17,-133
1747907690479.219,133032,1747907690460.437,-55,-21,-125
1747907690499.094,132838,1747907690480.344,-61,-4,-132
1747907690518.937,132654,1747907690500.156,-64,15,-150
1747907690538.8132,132495,1747907690520.0,-84,11,-154
1747907690558.656,132315,1747907690539.875,-79,-9,-145
1747907690578.5,132134,1747907690559.687,-58,-1,-141
1747907690598.344,131923,1747907690579.563,-69,-9,-138
1747907690618.156,131693,1747907690599.406,-58,-9,-141
1747907690638.0,131514,1747907690619.219,-57,-9,-144
1747907690657.844,131284,1747907690639.094,-54,-9,-136
1747907690677.687,131043,1747907690658.937,-73,-9,-129
1747907690697.594,130748,1747907690678.844,-71,-15,-137
1747907690717.438,130484,1747907690698.656,-58,-10,-137
1747907690737.25,130177,1747907690718.5,-69,-5,-145
1747907690757.094,129911,1747907690738.344,-65,-9,-138
1747907690777.062,129647,1747907690758.156,-64,-10,-139
1747907690796.781,129415,1747907690778.125,-85,-9,-141
1747907690816.625,129170,1747907690797.875,-72,-13,-138
1747907690836.469,128951,1747907690817.687,-64,-13,-138
1747907690856.344,128772,1747907690837.562,-63,-18,-138
1747907690876.187,128589,1747907690857.406,-61,-9,-138
1747907690896.0,128419,1747907690877.25,-64,-13,-141
1747907690915.875,128231,1747907690897.125,-63,-13,-145
1747907690935.719,128079,1747907690916.969,-72,-7,-141
1747907690955.562,127929,1747907690936.812,-63,-13,-136
1747907690975.406,127760,1747907690956.656,-68,-5,-132
1747907690995.281,127614,1747907690976.531,-61,-10,-140
1747907691015.125,127472,1747907690996.344,-72,-13,-135
1747907691035.0,127319,1747907691016.281,-61,-11,-132
1747907691054.812,127160,1747907691036.094,-72,-9,-140
1747907691074.687,127026,1747907691055.938,-64,-8,-142
1747907691094.563,126880,1747907691075.781,-65,-13,-141
1747907691114.5,126765,1747907691095.625,-60,-9,-137
1747907691134.187,126650,1747907691115.563,-63,-7,-137
1747907691154.062,126533,1747907691135.313,-62,-6,-147
1747907691173.938,126443,1747907691155.125,-72,-9,-141
1747907691193.781,126345,1747907691175.0,-63,-17,-141
1747907691213.625,126253,1747907691194.875,-77,-6,-142
1747907691233.5,126170,1747907691214.719,-62,-9,-140
1747907691253.312,126058,1747907691234.5632,-72,-17,-136
1747907691273.1882,125999,1747907691254.375,-73,-9,-141
1747907691292.969,125923,1747907691274.25,-64,-9,-139
1747907691312.844,125843,1747907691294.094,-67,-9,-132
1747907691332.687,125737,1747907691313.906,-69,-9,-142
1747907691352.531,125641,1747907691333.781,-72,-9,-137
1747907691372.375,125438,1747907691353.594,-62,-7,-135
1747907691392.25,125223,1747907691373.469,-65,-16,-134
1747907691412.062,124987,1747907691393.312,-61,-10,-137
1747907691431.937,124776,1747907691413.156,-61,-13,-141
1747907691451.781,124567,1747907691433.031,-71,-8,-136
1747907691471.594,124369,1747907691452.844,-60,-16,-132
1747907691491.469,124152,1747907691472.656,-57,-9,-138
1747907691511.312,123969,1747907691492.563,-64,-10,-138
1747907691531.187,123787,1747907691512.406,-64,-6,-141
1747907691551.031,123651,1747907691532.281,-64,-10,-142
1747907691570.906,123510,1747907691552.094,-53,-10,-141
1747907691590.719,123373,1747907691571.906,-65,-2,-153
1747907691610.594,123250,1747907691591.813,-61,0,-146
1747907691630.406,123122,1747907691611.688,-57,-9,-141
1747907691650.25,123015,1747907691631.5,-77,-9,-130
1747907691670.125,122914,1747907691651.344,-72,-9,-138
1747907691689.969,122813,1747907691671.187,-73,-9,-132
1747907691709.812,122717,1747907691691.031,-64,-8,-134
1747907691729.688,122629,1747907691710.875,-65,-12,-145
1747907691749.531,122530,1747907691730.75,-63,-9,-141
1747907691769.406,122429,1747907691750.594,-81,-17,-137
1747907691789.375,122374,1747907691770.469,-72,-9,-138
1747907691809.094,122272,1747907691790.406,-73,-10,-134
1747907691828.938,122206,1747907691810.156,-68,-7,-140
1747907691848.813,122150,1747907691830.031,-63,-7,-136
1747907691868.625,122092,1747907691849.875,-64,-4,-146
1747907691888.469,122031,1747907691869.719,-74,-9,-136
1747907691908.344,121970,1747907691889.531,-62,-9,-149
1747907691928.188,121933,1747907691909.406,-69,-4,-147
1747907691948.0,121864,1747907691929.25,-64,-9,-141
1747907691967.875,121819,1747907691949.125,-60,-8,-141
1747907691987.719,121792,1747907691968.9382,-73,-9,-130
1747907692007.594,121771,1747907691988.812,-66,-5,-141
1747907692027.406,121722,1747907692008.687,-64,-8,-147
1747907692047.281,121647,1747907692028.625,-76,-9,-139
1747907692067.125,121581,1747907692048.344,-62,-5,-140
1747907692086.969,121445,1747907692068.188,-63,-8,-137
1747907692106.813,121287,1747907692088.062,-65,-9,-140
1747907692126.656,121110,1747907692107.906,-69,-9,-136
1747907692146.531,120940,1747907692127.75,-71,-9,-141
1747907692166.406,120785,1747907692147.594,-72,-9,-143
1747907692186.25,120607,1747907692167.469,-72,-9,-138
1747907692206.125,120472,1747907692187.3118,-63,-17,-148
1747907692225.969,120339,1747907692207.187,-64,-9,-141
1747907692245.844,120229,1747907692227.063,-60,-9,-143
1747907692265.688,120115,1747907692246.938,-72,-17,-146
1747907692285.563,120026,1747907692266.812,-66,-7,-142
1747907692305.437,119926,1747907692286.625,-63,-10,-136
1747907692325.312,119872,1747907692306.5,-72,-9,-153
1747907692345.156,119800,1747907692326.375,-60,-9,-140
1747907692364.969,119749,1747907692346.25,-64,-10,-141
1747907692384.844,119711,1747907692366.062,-74,-9,-135
1747907692404.687,119654,1747907692385.875,-65,-7,-143
1747907692424.5,119592,1747907692405.75,-68,-5,-136
1747907692444.375,119548,1747907692425.594,-61,-7,-141
1747907692464.313,119509,1747907692445.437,-61,-10,-138
1747907692484.094,119458,1747907692465.312,-61,-8,-144
1747907692503.937,119427,1747907692485.156,-61,-9,-141
1747907692523.781,119390,1747907692505.031,-72,-8,-133
1747907692543.625,119342,1747907692524.844,-72,-7,-134
1747907692563.5,119345,1747907692544.687,-64,-9,-145
1747907692583.312,119304,1747907692564.563,-64,-8,-138
1747907692603.156,119271,1747907692584.406,-64,-17,-143
1747907692623.0,119247,1747907692604.219,-64,-13,-145
1747907692642.844,119232,1747907692624.094,-72,-8,-137
1747907692662.719,119183,1747907692643.906,-64,-9,-144
1747907692682.5,119125,1747907692663.75,-71,-13,-142
1747907692702.344,119089,1747907692683.594,-61,-9,-133
1747907692722.219,119049,1747907692703.406,-73,-7,-130
1747907692742.094,119028,1747907692723.281,-71,-7,-141
1747907692761.875,119000,1747907692743.156,-65,-6,-138
1747907692781.75,119000,1747907692763.0,-72,-7,-141
1747907692801.594,118972,1747907692782.813,-61,-9,-137
1747907692821.5,118882,1747907692802.656,-69,0,-136
1747907692841.281,118788,1747907692822.5,-64,-17,-153
1747907692861.125,118663,1747907692842.375,-72,-9,-134
1747907692880.969,118533,1747907692862.219,-61,-13,-145
1747907692900.844,118410,1747907692882.031,-74,-5,-140
1747907692920.688,118268,1747907692901.906,-72,-8,-135
1747907692940.5,118160,1747907692921.75,-61,0,-145
1747907692960.375,118072,1747907692941.594,-63,-6,-142
1747907692980.25,118009,1747907692961.438,-63,-6,-141
1747907693000.063,117946,1747907692981.313,-71,0,-128
1747907693019.938,117891,1747907693001.156,-73,-7,-138
1747907693039.781,117815,1747907693021.0,-66,-5,-134
1747907693059.656,117779,1747907693040.844,-71,-7,-134
1747907693079.469,117711,1747907693060.719,-65,-9,-132
1747907693099.344,117678,1747907693080.594,-66,-9,-144
1747907693119.188,117637,1747907693100.406,-65,-8,-137
1747907693139.156,117583,1747907693120.25,-61,-12,-143
1747907693158.937,117542,1747907693140.219,-71,-8,-146
1747907693178.719,117506,1747907693159.938,-63,-7,-141
1747907693198.594,117449,1747907693179.812,-63,-5,-137
1747907693218.437,117424,1747907693199.625,-83,-15,-135
1747907693238.281,117388,1747907693219.531,-61,-10,-144
1747907693258.125,117359,1747907693239.375,-72,-9,-136
1747907693278.0,117333,1747907693259.187,-72,0,-144
1747907693297.844,117298,1747907693279.094,-65,-7,-143
1747907693317.656,117289,1747907693298.906,-62,-8,-142
1747907693337.5,117277,1747907693318.75,-68,-5,-128
1747907693357.469,117239,1747907693338.563,-69,-7,-134
1747907693377.188,117217,1747907693358.406,-64,-1,-145
1747907693397.063,117191,1747907693378.375,-68,-9,-141
1747907693416.906,117171,1747907693398.156,-61,-7,-138
1747907693436.75,117171,1747907693417.969,-60,-9,-137
1747907693456.625,117172,1747907693437.813,-65,-7,-141
1747907693476.562,117158,1747907693457.656,-57,0,-141
1747907693496.375,117138,1747907693477.688,-69,-9,-137
1747907693516.187,117128,1747907693497.375,-64,-8,-141
1747907693536.031,117118,1747907693517.25,-72,-8,-141
1747907693555.875,117118,1747907693537.125,-61,-13,-140
1747907693575.688,117089,1747907693556.969,-64,-5,-144
1747907693595.562,117049,1747907693576.813,-68,-13,-137
1747907693615.437,116992,1747907693596.625,-64,-15,-145
1747907693635.281,116904,1747907693616.5,-71,-7,-136
1747907693655.094,116814,1747907693636.375,-70,-8,-144
1747907693674.969,116723,1747907693656.187,-72,-7,-128
1747907693694.812,116652,1747907693676.031,-75,-9,-138
1747907693714.656,116586,1747907693695.875,-64,-10,-145
1747907693734.469,116503,1747907693715.719,-71,-7,-141
1747907693754.344,116446,1747907693735.594,-74,-4,-138
1747907693774.187,116404,1747907693755.406,-60,-2,-129
1747907693794.062,116354,1747907693775.25,-73,-6,-137
1747907693813.875,116305,1747907693795.125,-63,-10,-138
1747907693833.813,116285,1747907693814.969,-65,0,-141
1747907693853.625,116239,1747907693834.812,-74,-8,-144
1747907693873.469,116233,1747907693854.688,-70,-9,-148
1747907693893.281,116213,1747907693874.563,-85,-12,-140
1747907693913.156,116200,1747907693894.375,-61,-17,-144
1747907693933.0,116176,1747907693914.219,-60,-13,-144
1747907693952.844,116151,1747907693934.094,-66,-15,-152
1747907693972.687,116129,1747907693953.938,-71,0,-135
1747907693992.563,116070,1747907693973.813,-63,-9,-137
1747907694012.438,116046,1747907693993.625,-57,-11,-128
1747907694032.281,116025,1747907694013.5,-72,-13,-143
1747907694052.094,116008,1747907694033.344,-65,0,-138
1747907694071.969,115980,1747907694053.281,-70,-5,-134
1747907694091.813,116006,1747907694073.062,-61,-12,-136
1747907694111.688,115993,1747907694092.875,-73,-7,-136
1747907694131.5,115981,1747907694112.75,-65,0,-142
1747907694151.437,115967,1747907694132.625,-64,-13,-138
1747907694171.25,115974,1747907694152.531,-64,-8,-132
1747907694191.094,115963,1747907694172.312,-63,-9,-138
1747907694210.938,115969,1747907694192.187,-72,-6,-130
1747907694230.781,115971,1747907694212.031,-66,-13,-129
1747907694250.656,115955,1747907694231.844,-64,-9,-144
1747907694270.5,115941,1747907694251.719,-64,-7,-138
1747907694290.344,115926,1747907694271.562,-68,-17,-142
1747907694310.187,115903,1747907694291.437,-68,-13,-138
1747907694330.031,115900,1747907694311.25,-65,-9,-134
1747907694349.906,115886,1747907694331.094,-61,-7,-144
1747907694369.75,115899,1747907694350.969,-66,-9,-140
1747907694389.563,115884,1747907694370.812,-73,-13,-138
1747907694409.437,115865,1747907694390.625,-73,-10,-133
1747907694429.281,115785,1747907694410.5,-71,-9,-141
1747907694449.125,115733,1747907694430.344,-63,-8,-134
1747907694468.969,115663,1747907694450.219,-72,-8,-144
1747907694488.906,115612,1747907694470.031,-71,-7,-136
1747907694508.719,115559,1747907694489.969,-82,-7,-138
1747907694528.563,115529,1747907694509.75,-71,0,-137
1747907694548.375,115471,1747907694529.625,-65,-9,-138
1747907694568.219,115451,1747907694549.469,-77,-5,-140
1747907694588.094,115400,1747907694569.281,-64,-8,-143
1747907694607.937,115373,1747907694589.188,-64,-5,-143
1747907694627.781,115348,1747907694609.031,-78,-17,-146
1747907694647.625,115326,1747907694628.875,-60,-5,-137
1747907694667.5,115309,1747907694648.719,-73,-9,-145
1747907694687.344,115277,1747907694668.563,-61,-9,-145
1747907694707.187,115262,1747907694688.406,-72,-8,-138
1747907694727.031,115255,1747907694708.281,-73,-7,-138
1747907694746.906,115233,1747907694728.125,-70,-9,-141
1747907694766.781,115238,1747907694747.969,-77,-9,-136
1747907694786.594,115217,1747907694767.844,-64,-9,-141
1747907694806.469,115177,1747907694787.688,-68,-8,-140
1747907694826.344,115192,1747907694807.531,-72,-10,-138
1747907694846.187,115180,1747907694827.406,-72,-7,-141
1747907694866.031,115161,1747907694847.219,-64,-10,-146
1747907694885.906,115168,1747907694867.125,-60,-8,-138
1747907694905.75,115166,1747907694886.969,-63,-9,-136
1747907694925.625,115179,1747907694906.812,-61,-9,-138
1747907694945.437,115168,1747907694926.688,-61,-7,-136
1747907694965.312,115185,1747907694946.531,-77,-17,-144
1747907694985.156,115181,1747907694966.375,-64,-9,-137
1747907695005.0,115189,1747907694986.219,-72,-9,-137
1747907695024.844,115176,1747907695006.094,-63,-8,-145
1747907695044.687,115195,1747907695025.969,-69,-9,-141
1747907695064.563,115185,1747907695045.75,-64,-10,-138
1747907695084.406,115211,1747907695065.625,-72,-13,-142
1747907695104.25,115214,1747907695085.5,-60,-8,-144
1747907695124.094,115196,1747907695105.375,-77,-5,-138
1747907695143.937,115190,1747907695125.156,-58,-13,-153
1747907695163.8132,115154,1747907695145.031,-76,-9,-140
1747907695183.625,115110,1747907695164.906,-64,-8,-141
1747907695203.5,115089,1747907695184.719,-64,-1,-136
1747907695223.344,115041,1747907695204.531,-65,0,-147
1747907695243.219,115004,1747907695224.406,-69,-13,-136
1747907695263.031,114959,1747907695244.281,-64,-10,-136
1747907695282.875,114922,1747907695264.156,-72,-9,-130
1747907695302.75,114896,1747907695283.937,-64,-7,-143
1747907695322.594,114872,1747907695303.781,-69,-9,-138
1747907695342.438,114848,1747907695323.656,-72,-10,-136
1747907695362.281,114820,1747907695343.531,-61,-8,-145
1747907695382.156,114807,1747907695363.344,-73,-10,-137
1747907695402.0,114769,1747907695383.219,-64,-10,-134
1747907695421.875,114741,1747907695403.094,-61,-9,-140
1747907695441.719,114710,1747907695422.937,-72,-9,-134
1747907695461.563,114675,1747907695442.812,-64,-8,-138
1747907695481.437,114661,1747907695462.625,-61,-9,-137
1747907695501.281,114647,1747907695482.531,-72,-9,-132
1747907695521.094,114636,1747907695502.375,-61,0,-137
1747907695540.969,114628,1747907695522.187,-64,-4,-143
1747907695560.844,114607,1747907695542.062,-74,-9,-132
1747907695580.687,114590,1747907695561.938,-57,-6,-140
1747907695600.531,114592,1747907695581.75,-68,-8,-132
1747907695620.5,114580,1747907695601.594,-72,-10,-141
1747907695640.25,114572,1747907695621.469,-81,-1,-136
1747907695660.094,114569,1747907695641.313,-63,-9,-140
1747907695679.906,114559,1747907695661.156,-72,-7,-138
1747907695699.781,114563,1747907695681.0,-61,0,-138
1747907695719.656,114539,1747907695700.844,-64,-10,-140
1747907695739.5,114552,1747907695720.719,-74,-9,-138
1747907695759.344,114559,1747907695740.563,-61,-9,-144
1747907695779.219,114553,1747907695760.406,-72,-9,-135
1747907695799.031,114556,1747907695780.281,-64,-6,-138
1747907695818.906,114560,1747907695800.156,-65,-7,-138
1747907695838.75,114553,1747907695819.969,-60,-9,-138
1747907695858.562,114583,1747907695839.844,-68,-9,-141
1747907695878.438,114582,1747907695859.656,-64,-1,-142
1747907695898.344,114600,1747907695879.531,-76,-6,-140
1747907695918.125,114584,1747907695899.406,-58,-2,-136
1747907695938.0,114562,1747907695919.25,-61,-7,-138
1747907695957.938,114533,1747907695939.063,-71,-13,-133
1747907695977.719,114493,1747907695958.937,-79,-1,-148
1747907695997.531,114461,1747907695978.781,-63,-9,-149
1747907696017.406,114398,1747907695998.625,-71,-8,-136
1747907696037.25,114367,1747907696018.469,-61,-17,-119
1747907696057.125,114339,1747907696038.344,-64,-9,-140
1747907696076.938,114337,1747907696058.187,-72,-9,-138
1747907696096.781,114306,1747907696078.031,-61,-7,-144
1747907696116.656,114290,1747907696097.844,-74,-11,-141
1747907696136.5,114265,1747907696117.75,-64,-7,-141
1747907696156.344,114263,1747907696137.594,-72,-9,-138
1747907696176.188,114238,1747907696157.437,-56,-9,-143
1747907696196.062,114250,1747907696177.281,-64,-9,-138
1747907696215.937,114244,1747907696197.094,-68,-9,-135
1747907696235.844,114242,1747907696217.0,-61,-13,-141
1747907696255.594,114237,1747907696236.969,-79,-9,-136
1747907696275.469,114242,1747907696256.687,-64,-9,-144
1747907696295.375,114236,1747907696276.531,-76,-9,-137
1747907696315.125,114252,1747907696296.375,-69,-1,-144
1747907696335.0,114269,1747907696316.219,-69,-9,-135
1747907696354.844,114274,1747907696336.062,-62,-8,-140
1747907696374.687,114251,1747907696355.906,-58,-13,-142
1747907696394.531,114259,1747907696375.75,-72,-8,-133
1747907696414.344,114285,1747907696395.625,-64,-8,-142
1747907696434.219,114281,1747907696415.406,-61,-9,-144
1747907696454.063,114321,1747907696435.281,-61,-10,-134
1747907696473.906,114324,1747907696455.125,-76,-5,-140
1747907696493.75,114347,1747907696474.969,-80,-7,-142
1747907696513.562,114364,1747907696494.813,-64,-7,-136
1747907696533.406,114378,1747907696514.625,-57,-11,-148
1747907696553.281,114382,1747907696534.5,-64,-1,-138
1747907696573.094,114389,1747907696554.375,-76,-10,-140
1747907696592.937,114415,1747907696574.188,-37,-8,-138
1747907696612.813,114431,1747907696594.031,-74,-9,-140
1747907696632.656,114458,1747907696613.875,-64,-9,-141
1747907696652.469,114500,1747907696633.719,-80,-4,-148
1747907696672.312,114493,1747907696653.594,-61,-9,-140
1747907696692.156,114481,1747907696673.406,-61,-10,-136
1747907696712.031,114442,1747907696693.25,-76,-10,-145
1747907696731.875,114416,1747907696713.094,-63,-8,-137
1747907696751.688,114395,1747907696732.969,-73,-9,-136
1747907696771.562,114361,1747907696752.781,-74,-9,-141
1747907696791.437,114335,1747907696772.625,-70,-9,-138
1747907696811.219,114306,1747907696792.5,-72,-8,-140
1747907696831.094,114289,1747907696812.344,-58,-7,-139
1747907696850.937,114293,1747907696832.156,-71,-7,-126
1747907696870.781,114296,1747907696852.031,-71,-9,-140
1747907696890.625,114279,1747907696871.844,-73,-10,-136
1747907696910.5,114286,1747907696891.719,-73,-9,-138
1747907696930.344,114271,1747907696911.531,-68,-13,-141
1747907696950.187,114292,1747907696931.406,-63,-13,-143
1747907696970.031,114294,1747907696951.281,-64,-9,-140
1747907696989.906,114299,1747907696971.1558,-80,-1,-142
1747907697009.7808,114305,1747907696990.969,-62,-9,-136
1747907697029.625,114318,1747907697010.844,-72,-9,-137
1747907697049.469,114299,1747907697030.719,-72,-8,-145
1747907697069.344,114311,1747907697050.563,-63,-10,-145
1747907697089.188,114308,1747907697070.406,-74,-9,-137
1747907697109.062,114346,1747907697090.25,-63,-9,-136
1747907697128.906,114331,1747907697110.125,-65,-9,-134
1747907697148.75,114355,1747907697130.031,-71,-9,-134
1747907697168.625,114370,1747907697149.875,-76,-9,-138
1747907697188.5,114380,1747907697169.719,-61,-5,-144
1747907697208.312,114406,1747907697189.563,-76,-9,-134
1747907697228.187,114421,1747907697209.438,-64,-1,-143
1747907697248.031,114449,1747907697229.25,-72,-9,-137
1747907697267.906,114457,1747907697249.094,-51,-12,-133
1747907697287.75,114469,1747907697268.969,-71,-10,-135
1747907697307.625,114491,1747907697288.875,-63,-9,-140
1747907697327.469,114496,1747907697308.719,-77,-1,-143
1747907697347.375,114499,1747907697328.562,-68,-9,-140
1747907697367.188,114523,1747907697348.406,-76,-13,-145
1747907697387.062,114498,1747907697368.313,-72,-17,-120
1747907697406.938,114528,1747907697388.188,-61,-8,-141
1747907697426.813,114502,1747907697408.031,-73,-4,-136
1747907697446.625,114478,1747907697427.875,-62,-6,-141
1747907697466.531,114438,1747907697447.75,-69,-10,-138
1747907697486.375,114403,1747907697467.594,-68,-10,-138
1747907697506.281,114375,1747907697487.437,-66,-7,-136
1747907697526.125,114347,1747907697507.344,-72,-7,-134
1747907697545.969,114314,1747907697527.219,-71,-7,-137
1747907697565.875,114288,1747907697547.0632,-61,-7,-138
1747907697585.75,114285,1747907697566.937,-69,-9,-143
1747907697605.656,114254,1747907697586.844,-69,-8,-130
1747907697625.469,114253,1747907697606.688,-72,-8,-153
1747907697645.344,114241,1747907697626.563,-71,-9,-144
1747907697665.219,114233,1747907697646.406,-82,-7,-142
1747907697685.031,114239,1747907697666.281,-64,-9,-142
1747907697704.906,114221,1747907697686.125,-72,-9,-138
1747907697724.781,114225,1747907697706.0,-64,-17,-145
1747907697744.625,114214,1747907697725.844,-68,-8,-137
1747907697764.469,114221,1747907697745.719,-61,-10,-140
1747907697784.344,114226,1747907697765.594,-71,-12,-153
1747907697804.219,114226,1747907697785.375,-69,-9,-137
1747907697824.063,114218,1747907697805.281,-63,-20,-145
1747907697843.906,114210,1747907697825.125,-72,-8,-142
1747907697863.781,114216,1747907697845.0,-64,-7,-136
1747907697883.625,114181,1747907697864.875,-72,-9,-138
1747907697903.5,114179,1747907697884.719,-64,-9,-141
1747907697923.344,114186,1747907697904.562,-60,-9,-141
1747907697943.219,114206,1747907697924.469,-64,-9,-138
1747907697963.094,114222,1747907697944.281,-64,-9,-141
1747907697983.0,114226,1747907697964.188,-72,-4,-137
1747907698002.781,114239,1747907697984.062,-72,-13,-140
1747907698022.656,114241,1747907698003.875,-71,-11,-141
1747907698042.562,114247,1747907698023.719,-57,-9,-139
1747907698062.406,114278,1747907698043.594,-73,-1,-141
1747907698082.219,114281,1747907698063.469,-74,-7,-145
1747907698102.094,114276,1747907698083.312,-61,-6,-144
1747907698121.938,114282,1747907698103.156,-64,-17,-125
1747907698141.812,114271,1747907698123.063,-64,-9,-138
1747907698161.656,114255,1747907698142.906,-72,-9,-144
1747907698181.5,114195,1747907698162.75,-63,-13,-145
1747907698201.375,114143,1747907698182.594,-72,-9,-137
1747907698221.281,114096,1747907698202.469,-61,0,-140
1747907698241.094,114039,1747907698222.344,-64,-5,-140
1747907698260.969,114010,1747907698242.188,-71,-10,-138
1747907698280.813,113980,1747907698262.062,-68,-9,-142
1747907698300.687,113954,1747907698281.906,-64,-10,-144
1747907698320.469,113927,1747907698301.75,-64,-9,-135
1747907698340.375,113903,1747907698321.594,-72,-9,-136
1747907698360.219,113904,1747907698341.437,-65,-5,-137
1747907698380.094,113889,1747907698361.281,-61,0,-136
1747907698399.906,113865,1747907698381.125,-56,-8,-138
1747907698419.75,113881,1747907698401.031,-58,-5,-141
1747907698439.625,113842,1747907698420.844,-68,-5,-137
1747907698459.469,113822,1747907698440.687,-64,-1,-151
1747907698479.281,113821,1747907698460.5,-61,-13,-142
1747907698499.125,113803,1747907698480.406,-71,-7,-145
1747907698519.0,113813,1747907698500.219,-61,-9,-137
1747907698538.875,113799,1747907698520.062,-72,-7,-141
1747907698558.688,113813,1747907698539.969,-61,-6,-138
1747907698578.562,113808,1747907698559.813,-69,-10,-140
1747907698598.406,113800,1747907698579.594,-64,-13,-141
1747907698618.25,113781,1747907698599.469,-69,-7,-145
1747907698638.063,113789,1747907698619.312,-79,-9,-146
1747907698657.938,113770,1747907698639.187,-61,-9,-140
1747907698677.812,113785,1747907698659.031,-64,-9,-141
1747907698697.656,113799,1747907698678.875,-61,-9,-144
1747907698717.5,113805,1747907698698.719,-63,0,-138
1747907698737.313,113810,1747907698718.5618,-64,-6,-137
1747907698757.187,113839,1747907698738.406,-64,-7,-142
1747907698777.031,113868,1747907698758.25,-68,-5,-141
1747907698796.875,113872,1747907698778.125,-64,-1,-137
1747907698816.719,113879,1747907698797.969,-77,-5,-133
1747907698836.563,113882,1747907698817.781,-64,-7,-138
1747907698856.437,113867,1747907698837.688,-71,0,-145
1747907698876.281,113841,1747907698857.531,-62,-8,-138
1747907698896.125,113792,1747907698877.375,-71,-11,-133
1747907698916.0,113778,1747907698897.187,-68,-5,-142
1747907698935.875,113725,1747907698917.062,-63,-9,-145
1747907698955.719,113687,1747907698936.969,-66,-5,-145
1747907698975.563,113662,1747907698956.781,-80,-11,-136
1747907698995.438,113613,1747907698976.625,-77,-7,-143
1747907699015.281,113605,1747907698996.5,-61,-6,-146
1747907699035.156,113593,1747907699016.344,-61,-7,-144
1747907699055.0,113552,1747907699036.219,-61,0,-141
1747907699074.875,113555,1747907699056.062,-64,-8,-138
1747907699094.719,113531,1747907699075.937,-62,-10,-142
1747907699114.594,113526,1747907699095.781,-64,-7,-144
1747907699134.406,113538,1747907699115.656,-71,0,-146
1747907699154.281,113509,1747907699135.438,-61,-9,-151
1747907699174.156,113519,1747907699155.344,-63,-12,-145
1747907699194.0,113521,1747907699175.187,-71,-9,-128
1747907699213.969,113529,1747907699195.0632,-61,-11,-137
1747907699233.719,113509,1747907699214.969,-61,4,-144
1747907699253.594,113497,1747907699234.781,-73,-9,-141
1747907699273.438,113471,1747907699254.687,-63,-13,-138
1747907699293.281,113483,1747907699274.531,-65,-8,-138
1747907699313.156,113472,1747907699294.313,-63,-7,-147
1747907699333.063,113483,1747907699314.219,-72,2,-144
1747907699352.844,113486,1747907699334.125,-64,-13,-137
1747907699372.687,113467,1747907699353.937,-76,-9,-141
1747907699392.531,113468,1747907699373.75,-61,-11,-138
1747907699412.438,113491,1747907699393.594,-65,-13,-141
1747907699432.281,113492,1747907699413.5,-71,-7,-136
1747907699452.125,113510,1747907699433.344,-64,-7,-138
1747907699472.0,113511,1747907699453.188,-72,-17,-143
1747907699491.844,113516,1747907699473.063,-68,-9,-137
1747907699511.688,113530,1747907699492.906,-64,-9,-140
1747907699531.531,113554,1747907699512.75,-73,-10,-161
1747907699551.406,113566,1747907699532.594,-64,-7,-140
1747907699571.219,113560,1747907699552.469,-78,-16,-134
1747907699591.094,113559,1747907699572.313,-64,-13,-141
1747907699610.906,113534,1747907699592.156,-61,-7,-134
1747907699630.781,113520,1747907699612.0,-72,-9,-138
1747907699650.656,113499,1747907699631.844,-57,-9,-138
1747907699670.5,113499,1747907699651.719,-76,-7,-137
1747907699690.313,113484,1747907699671.531,-68,-13,-133
1747907699710.188,113445,1747907699691.406,-62,-13,-138
1747907699730.062,113415,1747907699711.25,-73,-10,-134
1747907699749.875,113396,1747907699731.125,-64,-13,-137
1747907699769.719,113374,1747907699750.969,-64,-6,-140
1747907699789.563,113321,1747907699770.812,-61,-8,-134
1747907699809.438,113279,1747907699790.625,-64,-25,-138
1747907699829.312,113274,1747907699810.5,-72,-5,-137
1747907699849.125,113266,1747907699830.375,-72,-10,-138
1747907699869.0,113257,1747907699850.219,-68,-10,-153
1747907699888.844,113258,1747907699870.062,-74,-8,-135
1747907699908.687,113238,1747907699889.906,-72,-5,-137
1747907699928.531,113235,1747907699909.781,-61,-7,-137
1747907699948.406,113221,1747907699929.656,-63,-10,-144
1747907699968.25,113200,1747907699949.437,-63,-9,-144
1747907699988.094,113187,1747907699969.312,-52,-11,-132
1747907700007.937,113175,1747907699989.156,-63,-17,-146
1747907700027.781,113179,1747907700009.063,-64,-9,-137
1747907700047.656,113171,1747907700028.8442,-64,-1,-138
1747907700067.531,113145,1747907700048.719,-60,-9,-134
1747907700087.344,113125,1747907700068.594,-49,-13,-137
1747907700107.219,113109,1747907700088.438,-72,-9,-144
1747907700127.188,113090,1747907700108.313,-64,-9,-142
1747907700146.938,113073,1747907700128.156,-77,-1,-136
1747907700166.781,113059,1747907700148.031,-72,-5,-140
1747907700186.625,113059,1747907700167.875,-62,-13,-141
1747907700206.5,113040,1747907700187.719,-64,-16,-134
1747907700226.375,113020,1747907700207.594,-71,-9,-138
1747907700246.188,113021,1747907700227.469,-60,-7,-138
1747907700266.062,113015,1747907700247.281,-63,-5,-144
1747907700285.906,112998,1747907700267.156,-61,-8,-136
1747907700305.781,112980,1747907700287.0,-77,-9,-136
1747907700325.594,112931,1747907700306.906,-64,-9,-145
1747907700345.469,112886,1747907700326.719,-77,-10,-137
1747907700365.312,112842,1747907700346.531,-64,-9,-132
1747907700385.187,112793,1747907700366.406,-68,0,-134
1747907700405.031,112737,1747907700386.25,-74,-9,-137
1747907700424.844,112690,1747907700406.125,-65,-9,-138
1747907700444.75,112643,1747907700425.906,-64,-9,-135
1747907700464.656,112591,1747907700445.781,-65,-9,-146
1747907700484.406,112562,1747907700465.656,-79,-1,-145
1747907700504.281,112531,1747907700485.5,-68,-7,-141
1747907700524.125,112531,1747907700505.344,-68,-8,-137
1747907700544.0,112515,1747907700525.188,-72,-17,-116
1747907700563.812,112497,1747907700545.063,-64,-9,-137
1747907700583.656,112485,1747907700564.9058,-61,-13,-136
1747907700603.5308,112456,1747907700584.75,-64,-9,-145
1747907700623.406,112445,1747907700604.594,-64,-9,-149
1747907700643.219,112411,1747907700624.438,-66,-9,-136
1747907700663.094,112367,1747907700644.344,-74,0,-140
1747907700682.938,112363,1747907700664.156,-60,-4,-138
1747907700702.812,112332,1747907700684.031,-73,-7,-132
1747907700722.656,112340,1747907700703.875,-64,-8,-138
1747907700742.5,112333,1747907700723.688,-61,-9,-143
1747907700762.344,112328,1747907700743.531,-61,-7,-143
1747907700782.219,112329,1747907700763.406,-72,-10,-141
1747907700802.062,112304,1747907700783.313,-70,-5,-142
1747907700821.937,112320,1747907700803.156,-53,-1,-137
1747907700841.813,112294,1747907700823.0,-68,-10,-134
1747907700861.656,112284,1747907700842.875,-65,-5,-147
1747907700881.5,112263,1747907700862.719,-74,-1,-144
1747907700901.375,112267,1747907700882.625,-72,-9,-140
1747907700921.25,112252,1747907700902.438,-64,-9,-141
1747907700941.125,112260,1747907700922.344,-72,-9,-132
1747907700960.969,112274,1747907700942.187,-64,-9,-143
1747907700980.812,112260,1747907700962.094,-63,-9,-140
1747907701000.719,112253,1747907700981.875,-77,-8,-136
1747907701020.594,112240,1747907701001.812,-76,-9,-145
1747907701040.437,112213,1747907701021.687,-66,-5,-141
1747907701060.312,112176,1747907701041.531,-72,-4,-137
1747907701080.219,112125,1747907701061.375,-72,-9,-141
1747907701100.063,112072,1747907701081.281,-66,-5,-141
1747907701119.937,112027,1747907701101.156,-73,-8,-137
1747907701139.781,111983,1747907701121.031,-61,0,-137
1747907701159.656,111928,1747907701140.844,-71,-5,-137
1747907701179.531,111900,1747907701160.75,-74,-10,-137
1747907701199.5,111887,1747907701180.594,-65,-7,-141
1747907701219.25,111887,1747907701200.5,-71,-1,-140
1747907701239.125,111868,1747907701220.313,-68,-9,-136
1747907701259.0,111845,1747907701240.187,-70,-10,-141
1747907701278.813,111857,1747907701260.062,-61,-17,-120
1747907701298.687,111821,1747907701279.938,-73,-7,-144
1747907701318.562,111801,1747907701299.75,-64,-9,-152
1747907701338.438,111790,1747907701319.625,-69,-13,-155
1747907701358.281,111747,1747907701339.469,-68,-5,-136
1747907701378.187,111743,1747907701359.375,-72,-8,-136
1747907701398.0,111724,1747907701379.25,-64,-9,-138
1747907701417.875,111714,1747907701399.063,-79,-9,-140
1747907701437.6882,111693,1747907701418.937,-64,-11,-133
1747907701457.562,111669,1747907701438.781,-72,-7,-145
1747907701477.406,111648,1747907701458.625,-63,-9,-140
1747907701497.281,111660,1747907701478.5,-64,-9,-138
1747907701517.094,111647,1747907701498.344,-68,0,-138
1747907701536.969,111641,1747907701518.187,-64,-9,-141
1747907701556.812,111667,1747907701538.031,-61,0,-141
1747907701576.687,111672,1747907701557.844,-72,-7,-141
1747907701596.531,111663,1747907701577.75,-72,-6,-138
1747907701616.406,111655,1747907701597.625,-64,-1,-143
1747907701636.25,111660,1747907701617.5,-68,-9,-140
1747907701656.094,111670,1747907701637.344,-72,-13,-140
1747907701675.906,111686,1747907701657.156,-71,-5,-145
1747907701695.781,111690,1747907701677.031,-64,-8,-140
1747907701715.625,111704,1747907701696.844,-58,-7,-145
1747907701735.469,111724,1747907701716.719,-72,-8,-138
1747907701755.312,111718,1747907701736.563,-64,-9,-138
1747907701775.125,111702,1747907701756.375,-71,-7,-136
1747907701795.0,111661,1747907701776.219,-66,-5,-139
1747907701814.844,111624,1747907701796.094,-73,-8,-137
1747907701834.687,111578,1747907701815.938,-58,-13,-141
1747907701854.562,111537,1747907701835.781,-71,-5,-130
1747907701874.469,111503,1747907701855.656,-65,-6,-138
1747907701894.313,111505,1747907701875.531,-56,-9,-144
1747907701914.125,111461,1747907701895.375,-77,-9,-141
1747907701933.969,111451,1747907701915.25,-72,-10,-138
1747907701953.844,111443,1747907701935.063,-61,12,-132
1747907701973.719,111428,1747907701954.875,-65,-8,-141
1747907701993.531,111411,1747907701974.781,-71,0,-144
1747907702013.406,111417,1747907701994.625,-72,-5,-145
1747907702033.281,111389,1747907702014.469,-68,-5,-143
1747907702053.125,111372,1747907702034.344,-64,-13,-136
1747907702072.969,111377,1747907702054.219,-68,-7,-143
1747907702092.844,111351,1747907702074.063,-69,-8,-145
1747907702112.687,111370,1747907702093.906,-64,-1,-147
1747907702132.531,111362,1747907702113.75,-61,-13,-132
1747907702152.531,111364,1747907702133.625,-71,-9,-133
1747907702172.25,111336,1747907702153.625,-64,-9,-129
1747907702192.125,111339,1747907702173.344,-65,0,-148
1747907702211.969,111328,1747907702193.156,-68,-9,-140
1747907702231.781,111340,1747907702213.062,-63,-21,-138
1747907702251.688,111358,1747907702232.906,-71,-9,-139
1747907702271.531,111358,1747907702252.781,-71,-9,-143
1747907702291.406,111357,1747907702272.594,-72,-13,-133
1747907702311.25,111353,1747907702292.469,-71,-9,-138
1747907702331.063,111388,1747907702312.344,-64,-9,-144
1747907702350.937,111401,1747907702332.156,-70,-9,-144
1747907702370.812,111428,1747907702352.0,-64,-5,-137
1747907702390.656,111427,1747907702371.875,-63,-13,-136
1747907702410.5,111443,1747907702391.781,-72,-7,-148
1747907702430.375,111473,1747907702411.562,-64,-10,-128
1747907702450.219,111501,1747907702431.438,-73,-9,-132
1747907702470.031,111529,1747907702451.313,-72,-9,-137
1747907702489.969,111537,1747907702471.125,-61,-7,-141
1747907702509.7808,111523,1747907702491.062,-74,-5,-143
1747907702529.625,111503,1747907702510.844,-70,-5,-148
1747907702549.469,111483,1747907702530.688,-72,-7,-138
1747907702569.313,111456,1747907702550.563,-65,-13,-137
1747907702589.188,111428,1747907702570.406,-64,-6,-141
1747907702609.031,111415,1747907702590.281,-72,-6,-138
1747907702628.906,111406,1747907702610.125,-72,-9,-143
1747907702648.813,111421,1747907702629.969,-71,-13,-144
1747907702668.594,111435,1747907702649.812,-71,8,-144
1747907702688.469,111467,1747907702669.656,-70,-7,-161
1747907702708.312,111488,1747907702689.531,-64,-5,-138
1747907702728.125,111534,1747907702709.375,-64,-5,-141
1747907702748.0,111554,1747907702729.219,-66,-7,-140
1747907702767.875,111584,1747907702749.094,-73,-9,-138
1747907702787.719,111583,1747907702768.937,-64,-9,-137
1747907702807.562,111593,1747907702788.781,-61,-9,-137
1747907702827.406,111614,1747907702808.625,-61,-11,-138
1747907702847.281,111629,1747907702828.469,-76,-7,-138
1747907702867.125,111652,1747907702848.344,-69,-5,-141
1747907702886.969,111663,1747907702868.219,-64,0,-138
1747907702906.812,111666,1747907702888.031,-77,-9,-144
1747907702926.688,111691,1747907702907.906,-65,-9,-137
1747907702946.563,111682,1747907702927.75,-63,0,-142
1747907702966.375,111705,1747907702947.656,-64,-1,-143
1747907702986.25,111725,1747907702967.438,-61,-7,-136
1747907703006.094,111733,1747907702987.313,-71,-7,-134
1747907703025.938,111735,1747907703007.156,-73,-12,-145
1747907703045.781,111775,1747907703027.031,-68,-5,-141
1747907703065.625,111795,1747907703046.875,-49,-17,-136
1747907703085.531,111804,1747907703066.719,-71,-8,-136
1747907703105.375,111813,1747907703086.594,-72,-7,-136
1747907703125.219,111832,1747907703106.469,-71,-9,-132
1747907703145.094,111857,1747907703126.281,-65,-13,-141
1747907703164.937,111857,1747907703146.156,-68,-9,-137
1747907703184.781,111868,1747907703166.0308,-73,-9,-142
1747907703204.656,111895,1747907703185.875,-66,-4,-140
1747907703224.531,111906,1747907703205.719,-61,-7,-140
1747907703244.375,111911,1747907703225.625,-80,-5,-132
1747907703264.219,111947,1747907703245.438,-61,-5,-145
1747907703284.125,111926,1747907703265.281,-74,-9,-141
1747907703303.906,111892,1747907703285.125,-77,-1,-136
1747907703323.781,111865,1747907703305.0,-76,-5,-139
1747907703343.656,111832,1747907703324.844,-63,-5,-140
1747907703363.469,111806,1747907703344.719,-72,-13,-120
1747907703383.313,111756,1747907703364.625,-73,-9,-140
1747907703403.188,111726,1747907703384.375,-64,-9,-136
1747907703423.031,111710,1747907703404.281,-69,-9,-145
1747907703442.906,111691,1747907703424.094,-72,-7,-137
1747907703462.75,111673,1747907703443.969,-72,-4,-161
1747907703482.594,111652,1747907703463.844,-63,-9,-138
1747907703502.469,111657,1747907703483.687,-72,-5,-144
1747907703522.281,111649,1747907703503.531,-64,-9,-138
1747907703542.281,111635,1747907703523.375,-72,-9,-137
1747907703562.031,111648,1747907703543.344,-67,-7,-141
1747907703581.875,111649,1747907703563.094,-61,0,-140
1747907703601.844,111639,1747907703582.969,-68,-5,-140
1747907703621.562,111623,1747907703602.906,-77,-13,-141
1747907703641.438,111622,1747907703622.656,-81,-13,-138
1747907703661.281,111616,1747907703642.5,-65,-9,-143
1747907703681.125,111630,1747907703662.375,-72,-13,-136
1747907703700.969,111630,1747907703682.219,-64,-17,-127
1747907703720.844,111633,1747907703702.063,-64,-7,-137
1747907703740.719,111646,1747907703721.937,-77,-9,-134
1747907703760.531,111664,1747907703741.781,-64,-9,-141
1747907703780.406,111711,1747907703761.625,-68,-9,-134
1747907703800.281,111719,1747907703781.469,-70,-9,-141
1747907703820.125,111746,1747907703801.344,-70,-7,-145
1747907703839.938,111790,1747907703821.187,-64,-9,-145
1747907703859.844,111807,1747907703841.063,-65,-9,-140
1747907703879.687,111846,1747907703860.906,-63,-9,-142
1747907703899.594,111866,1747907703880.781,-72,-9,-134
1747907703919.406,111897,1747907703900.625,-64,-9,-153
1747907703939.281,111922,1747907703920.5,-64,-10,-145
1747907703959.125,111966,1747907703940.344,-71,-10,-144
1747907703978.969,112019,1747907703960.219,-79,-8,-136
1747907703998.813,112052,1747907703980.062,-68,-13,-141
1747907704018.75,112080,1747907703999.937,-64,-7,-146
1747907704038.531,112080,1747907704019.781,-72,-8,-137
1747907704058.406,112049,1747907704039.594,-63,-13,-136
1747907704078.219,112034,1747907704059.469,-64,-7,-137
1747907704098.094,112001,1747907704079.344,-69,-6,-130
1747907704117.969,111964,1747907704099.156,-61,0,-140
1747907704137.781,111953,1747907704119.031,-71,-8,-134
1747907704157.656,111921,1747907704138.875,-64,-10,-141
1747907704177.531,111937,1747907704158.75,-70,-6,-138
1747907704197.375,111922,1747907704178.594,-74,-8,-138
1747907704217.25,111931,1747907704198.438,-72,-9,-138
1747907704237.062,111936,1747907704218.281,-73,-9,-134
1747907704256.969,111943,1747907704238.187,-58,-7,-140
1747907704276.781,111940,1747907704258.0,-74,-9,-145
1747907704296.6868,111929,1747907704277.844,-65,-8,-143
1747907704316.5,111933,1747907704297.75,-65,-13,-137
1747907704336.344,111939,1747907704317.594,-76,-12,-135
1747907704356.188,111941,1747907704337.375,-64,-13,-151
1747907704376.062,111941,1747907704357.281,-74,-17,-144
1747907704395.906,111951,1747907704377.125,-73,-7,-144
1747907704415.75,111970,1747907704397.0,-63,-13,-143
1747907704435.594,111961,1747907704416.844,-64,-9,-128
1747907704455.469,111974,1747907704436.687,-77,-9,-139
1747907704475.281,111968,1747907704456.563,-65,-10,-140
1747907704495.156,111962,1747907704476.375,-72,-9,-135
1747907704515.0,111947,1747907704496.25,-77,-10,-137
1747907704534.844,111888,1747907704516.062,-64,-12,-134
1747907704554.688,111845,1747907704535.937,-74,-9,-140
1747907704574.625,111813,1747907704555.781,-73,-9,-133
1747907704594.438,111763,1747907704575.688,-80,-9,-138
1747907704614.281,111710,1747907704595.469,-64,-9,-142
1747907704634.094,111677,1747907704615.344,-64,-8,-137
1747907704653.969,111655,1747907704635.219,-65,-9,-140
1747907704673.844,111632,1747907704655.031,-64,-13,-148
1747907704693.719,111640,1747907704674.906,-63,-10,-143
1747907704713.531,111647,1747907704694.781,-80,-1,-143
1747907704733.406,111673,1747907704714.656,-61,-8,-138
1747907704753.25,111688,1747907704734.469,-69,-5,-140
1747907704773.125,111706,1747907704754.313,-63,-10,-153
1747907704792.969,111712,1747907704774.187,-64,-7,-138
1747907704812.813,111702,1747907704794.094,-77,-16,-138
1747907704832.687,111632,1747907704813.875,-63,-10,-138
1747907704852.562,111591,1747907704833.75,-68,-10,-142
1747907704872.375,111547,1747907704853.625,-64,-8,-141
1747907704892.25,111505,1747907704873.469,-65,-5,-135
1747907704912.125,111444,1747907704893.344,-63,-13,-135
1747907704932.0,111353,1747907704913.188,-72,-7,-134
1747907704951.844,111256,1747907704933.063,-73,-9,-140
1747907704971.75,111172,1747907704952.969,-61,-10,-137
1747907704991.562,111116,1747907704972.812,-72,-10,-136
1747907705011.437,111099,1747907704992.625,-60,-13,-139
1747907705031.281,111087,1747907705012.5,-64,-7,-144
1747907705051.156,111132,1747907705032.375,-65,-1,-142
1747907705071.031,111197,1747907705052.25,-64,-9,-136
1747907705090.906,111239,1747907705072.125,-71,-5,-135
1747907705110.75,111285,1747907705091.969,-74,-9,-132
1747907705130.625,111333,1747907705111.844,-73,-11,-137
1747907705150.469,111388,1747907705131.687,-63,-1,-151
1747907705170.344,111411,1747907705151.563,-57,-9,-145
1747907705190.187,111472,1747907705171.438,-62,-10,-137
1747907705210.063,111524,1747907705191.281,-61,-9,-143
1747907705229.938,111586,1747907705211.125,-61,-12,-140
1747907705249.781,111636,1747907705231.0,-68,-10,-140
1747907705269.625,111682,1747907705250.844,-65,-9,-136
1747907705289.5,111722,1747907705270.719,-73,-9,-136
1747907705309.5,111775,1747907705290.562,-61,-13,-133
1747907705329.312,111806,1747907705310.563,-69,-9,-130
1747907705349.062,111856,1747907705330.313,-72,-7,-153
1747907705368.969,111909,1747907705350.156,-62,-8,-136
1747907705388.813,111963,1747907705370.0,-65,-11,-137
1747907705408.687,112038,1747907705389.906,-72,-9,-135
1747907705428.531,112116,1747907705409.781,-66,-5,-138
1747907705448.375,112154,1747907705429.625,-60,-21,-145
1747907705468.281,112199,1747907705449.437,-64,-9,-134
1747907705488.125,112229,1747907705469.344,-64,-8,-136
1747907705508.0,112281,1747907705489.188,-63,-14,-161
1747907705527.875,112321,1747907705509.094,-61,-9,-140
1747907705547.75,112383,1747907705528.937,-61,-8,-160
1747907705567.625,112461,1747907705548.812,-60,-7,-140
1747907705587.469,112486,1747907705568.719,-62,-9,-138
1747907705607.344,112520,1747907705588.531,-66,-7,-151
1747907705627.219,112525,1747907705608.406,-72,-13,-133
1747907705647.094,112522,1747907705628.281,-73,-9,-137
1747907705666.937,112530,1747907705648.281,-77,-1,-136
1747907705686.812,112523,1747907705668.0,-66,-5,-137
1747907705706.688,112521,1747907705687.906,-65,-5,-140
1747907705726.562,112532,1747907705707.75,-60,-10,-145
1747907705746.406,112560,1747907705727.656,-65,0,-144
1747907705766.281,112559,1747907705747.469,-60,0,-132
1747907705786.125,112537,1747907705767.344,-56,-7,-138
1747907705805.969,112512,1747907705787.187,-61,-9,-141
1747907705825.875,112493,1747907705807.031,-73,-9,-134
1747907705845.719,112502,1747907705826.938,-60,-4,-153
1747907705865.563,112495,1747907705846.781,-71,-7,-145
1747907705885.406,112450,1747907705866.625,-61,0,-141
1747907705905.281,112431,1747907705886.5,-76,-9,-132
1747907705925.156,112409,1747907705906.344,-72,-9,-141
1747907705945.031,112386,1747907705926.219,-63,-5,-140
1747907705964.844,112364,1747907705946.094,-63,-9,-138
1747907705984.719,112343,1747907705965.937,-74,-8,-134
1747907706004.594,112330,1747907705985.813,-65,-7,-132
1747907706024.469,112337,1747907706005.656,-68,-5,-136
1747907706044.313,112337,1747907706025.562,-64,-9,-138
1747907706064.188,112371,1747907706045.437,-78,-5,-134
1747907706084.094,112384,1747907706065.25,-66,-8,-136
1747907706103.937,112365,1747907706085.156,-74,-13,-137
1747907706123.813,112357,1747907706105.031,-41,0,-138
1747907706143.687,112373,1747907706124.906,-72,-7,-136
1747907706163.625,112397,1747907706144.75,-88,-9,-134
1747907706183.406,112426,1747907706164.625,-68,-1,-144
1747907706203.281,112457,1747907706184.5,-74,-7,-136
1747907706223.156,112455,1747907706204.406,-72,-12,-132
1747907706243.031,112467,1747907706224.219,-70,-9,-131
1747907706262.938,112497,1747907706244.125,-74,-5,-141
1747907706282.75,112513,1747907706264.0,-70,-9,-136
1747907706302.656,112526,1747907706283.844,-68,-9,-141
1747907706322.562,112540,1747907706303.719,-64,-10,-142
1747907706342.406,112561,1747907706323.594,-61,-7,-143
1747907706362.25,112559,1747907706343.594,-74,-9,-140
1747907706382.125,112570,1747907706363.312,-77,-9,-128
1747907706402.0,112571,1747907706383.188,-58,-9,-129
1747907706421.875,112548,1747907706403.094,-65,-10,-134
1747907706441.719,112500,1747907706422.969,-72,-9,-140
1747907706461.594,112465,1747907706442.781,-61,-7,-141
1747907706481.5,112422,1747907706462.688,-61,-6,-137
1747907706501.312,112389,1747907706482.563,-81,-9,-136
1747907706521.188,112358,1747907706502.437,-73,-13,-137
1747907706541.094,112318,1747907706522.25,-72,-11,-129
1747907706561.062,112311,1747907706542.125,-64,-8,-134
1747907706580.781,112295,1747907706562.0,-64,-5,-146
1747907706600.656,112261,1747907706581.875,-67,-9,-141
1747907706620.531,112265,1747907706601.719,-72,-9,-140
1747907706640.406,112246,1747907706621.594,-66,-17,-136
1747907706660.25,112248,1747907706641.531,-68,-6,-143
1747907706680.094,112263,1747907706661.344,-73,-9,-134
1747907706699.969,112288,1747907706681.156,-64,-12,-145
1747907706719.844,112307,1747907706701.031,-63,-9,-140
1747907706739.687,112333,1747907706720.938,-76,-5,-130
1747907706759.563,112361,1747907706740.781,-64,-9,-136
1747907706779.438,112370,1747907706760.656,-66,-12,-137
1747907706799.312,112374,1747907706780.469,-72,-7,-141
1747907706819.156,112381,1747907706800.375,-68,-9,-141
1747907706839.031,112373,1747907706820.25,-64,-13,-142
1747907706858.875,112403,1747907706840.094,-72,-6,-138
1747907706878.75,112429,1747907706859.937,-72,-7,-143
1747907706898.625,112481,1747907706879.813,-68,-9,-137
1747907706918.469,112528,1747907706899.719,-64,-13,-142
1747907706938.344,112578,1747907706919.531,-64,-10,-141
1747907706958.188,112623,1747907706939.437,-69,-13,-143
1747907706978.062,112671,1747907706959.281,-63,0,-137
1747907706997.937,112723,1747907706979.156,-77,-9,-138
1747907707017.781,112729,1747907706999.0,-65,-10,-137
1747907707037.656,112753,1747907707018.875,-72,-9,-153
1747907707057.5,112776,1747907707038.75,-63,-5,-140
1747907707077.344,112783,1747907707058.594,-65,-5,-141
1747907707097.219,112819,1747907707078.438,-72,-8,-141
1747907707117.094,112839,1747907707098.312,-61,-8,-140
1747907707136.906,112809,1747907707118.187,-66,-8,-144
1747907707156.781,112808,1747907707138.0,-71,-9,-138
1747907707176.625,112779,1747907707157.844,-64,-9,-138
1747907707196.469,112762,1747907707177.7192,-77,-9,-138
1747907707216.3442,112727,1747907707197.562,-66,-13,-142
1747907707236.187,112680,1747907707217.438,-63,-9,-132
1747907707256.031,112651,1747907707237.25,-84,-7,-142
1747907707275.906,112618,1747907707257.094,-61,-9,-136
1747907707295.719,112594,1747907707277.0,-61,-16,-138
1747907707315.594,112589,1747907707296.844,-80,-17,-141
1747907707335.469,112572,1747907707316.656,-64,-9,-138
1747907707355.313,112553,1747907707336.531,-64,-9,-144
1747907707375.125,112553,1747907707356.375,-72,-8,-153
1747907707395.0,112540,1747907707376.25,-59,-9,-139
1747907707414.844,112557,1747907707396.031,-69,-8,-141
1747907707434.719,112569,1747907707415.906,-67,-7,-133
1747907707454.563,112583,1747907707435.781,-75,-10,-138
1747907707474.406,112583,1747907707455.656,-65,-8,-138
1747907707494.281,112573,1747907707475.469,-65,-9,-133
1747907707514.156,112564,1747907707495.344,-76,-9,-136
1747907707533.969,112563,1747907707515.219,-64,-13,-138
1747907707553.844,112557,1747907707535.062,-65,-1,-136
1747907707573.688,112584,1747907707554.875,-72,-9,-137
1747907707593.531,112591,1747907707574.75,-71,-10,-133
1747907707613.344,112595,1747907707594.625,-68,-9,-135
1747907707633.219,112600,1747907707614.469,-64,-9,-140
1747907707653.094,112604,1747907707634.281,-81,2,-144
1747907707672.937,112616,1747907707654.125,-64,0,-136
1747907707692.75,112642,1747907707674.0,-63,-5,-138
1747907707712.625,112670,1747907707693.875,-72,-8,-136
1747907707732.469,112712,1747907707713.656,-66,-7,-145
1747907707752.344,112733,1747907707733.562,-79,-4,-136
1747907707772.156,112767,1747907707753.406,-73,-5,-140
1747907707792.031,112780,1747907707773.25,-63,0,-132
1747907707811.875,112797,1747907707793.094,-61,-6,-141
1747907707831.75,112831,1747907707812.937,-57,-8,-142
1747907707851.594,112831,1747907707832.844,-74,-10,-137
1747907707871.437,112811,1747907707852.688,-63,-13,-146
1747907707891.313,112783,1747907707872.5,-74,-1,-141
1747907707911.281,112727,1747907707892.375,-74,-5,-143
1747907707931.0,112658,1747907707912.344,-64,-9,-140
1747907707950.875,112594,1747907707932.094,-64,-9,-140
1747907707970.719,112525,1747907707951.938,-64,-9,-144
1747907707990.563,112460,1747907707971.781,-73,-1,-144
1747907708010.562,112413,1747907707991.656,-61,-9,-140
1747907708030.281,112382,1747907708011.656,-69,-9,-138
1747907708050.156,112337,1747907708031.344,-72,-17,-129
1747907708070.0,112322,1747907708051.219,-72,-9,-141
1747907708089.844,112299,1747907708071.062,-63,0,-140
1747907708109.688,112277,1747907708090.937,-73,0,-137
1747907708129.562,112290,1747907708110.75,-72,-4,-130
1747907708149.5,112263,1747907708130.656,-72,-8,-140
1747907708169.281,112273,1747907708150.594,-74,-7,-143
1747907708189.156,112250,1747907708170.375,-79,-7,-141
1747907708209.0,112240,1747907708190.219,-64,-9,-136
1747907708228.875,112201,1747907708210.094,-62,-9,-137
1747907708248.688,112172,1747907708229.938,-73,-9,-138
1747907708268.563,112164,1747907708249.8118,-72,-11,-137
1747907708288.437,112148,1747907708269.625,-64,-8,-145
1747907708308.312,112168,1747907708289.5,-64,-9,-140
1747907708328.125,112186,1747907708309.375,-58,-8,-143
1747907708347.969,112204,1747907708329.219,-63,-10,-144
1747907708367.813,112208,1747907708349.031,-64,-8,-135
1747907708387.687,112205,1747907708368.875,-73,-9,-131
1747907708407.531,112211,1747907708388.75,-73,-9,-141
1747907708427.375,112216,1747907708408.625,-64,-5,-146
1747907708447.219,112222,1747907708428.437,-71,-5,-145
1747907708467.094,112227,1747907708448.281,-64,-9,-141
1747907708486.969,112256,1747907708468.156,-64,-13,-141
1747907708506.781,112263,1747907708488.063,-63,-7,-140
1747907708526.625,112287,1747907708507.844,-58,-7,-140
1747907708546.469,112315,1747907708527.719,-66,-6,-145
1747907708566.344,112320,1747907708547.563,-64,-9,-132
1747907708586.1868,112297,1747907708567.438,-71,-13,-134
1747907708606.0,112282,1747907708587.219,-64,-13,-141
1747907708625.875,112224,1747907708607.094,-64,-12,-138
1747907708645.75,112157,1747907708626.969,-72,-11,-138
1747907708665.594,112100,1747907708646.844,-50,-5,-140
1747907708685.469,112029,1747907708666.656,-76,-5,-133
1747907708705.438,111962,1747907708686.531,-63,-11,-138
1747907708725.188,111894,1747907708706.406,-61,-2,-129
1747907708745.031,111831,1747907708726.25,-74,-9,-130
1747907708764.875,111779,1747907708746.125,-64,-11,-137
1747907708784.75,111737,1747907708765.969,-77,-9,-129
1747907708804.625,111700,1747907708785.812,-61,-9,-137
1747907708824.437,111679,1747907708805.687,-76,-9,-132
1747907708844.312,111651,1747907708825.5,-63,-7,-137
1747907708864.188,111635,1747907708845.375,-77,0,-142
1747907708884.031,111604,1747907708865.281,-64,-5,-140
1747907708903.875,111571,1747907708885.094,-73,-13,-137
1747907708923.719,111559,1747907708904.938,-61,-9,-138
1747907708943.625,111529,1747907708924.813,-79,-8,-138
1747907708963.469,111515,1747907708944.656,-63,-9,-145
1747907708983.281,111504,1747907708964.531,-64,-10,-144
1747907709003.156,111518,1747907708984.375,-81,-7,-143
1747907709023.094,111512,1747907709004.25,-60,-9,-138
1747907709042.906,111500,1747907709024.125,-61,-1,-141
1747907709062.719,111487,1747907709043.937,-66,-17,-146
1747907709082.594,111472,1747907709063.781,-60,-13,-136
1747907709102.437,111494,1747907709083.656,-65,-9,-133
1747907709122.281,111483,1747907709103.5,-73,-7,-139
1747907709142.125,111521,1747907709123.375,-60,-10,-136
1747907709161.969,111555,1747907709143.219,-63,-12,-128
1747907709181.844,111571,1747907709163.063,-73,-5,-134
1747907709201.687,111590,1747907709182.906,-68,-5,-142
1747907709221.531,111609,1747907709202.75,-58,-7,-138
1747907709241.406,111602,1747907709222.625,-71,-6,-141
1747907709261.281,111621,1747907709242.5,-73,0,-138
1747907709281.125,111640,1747907709262.375,-62,-9,-138
1747907709300.969,111673,1747907709282.219,-72,-9,-138
1747907709320.813,111703,1747907709302.062,-65,-10,-136
1747907709340.688,111713,1747907709321.906,-81,-7,-144
1747907709360.562,111710,1747907709341.75,-64,-9,-135
1747907709380.375,111638,1747907709361.625,-71,-13,-135
1747907709400.219,111583,1747907709381.469,-72,-17,-137
1747907709420.094,111497,1747907709401.312,-64,0,-136
1747907709439.937,111448,1747907709421.156,-72,-8,-128
1747907709459.781,111388,1747907709441.031,-76,-10,-148
1747907709479.656,111337,1747907709460.844,-60,-7,-147
1747907709499.469,111297,1747907709480.719,-71,-16,-134
1747907709519.344,111252,1747907709500.562,-61,-9,-137
1747907709539.156,111208,1747907709520.438,-74,-7,-136
1747907709559.0,111194,1747907709540.25,-64,-6,-138
1747907709578.875,111195,1747907709560.063,-71,-7,-137
1747907709598.75,111172,1747907709579.937,-72,-7,-140
1747907709618.562,111174,1747907709599.812,-64,-9,-138
1747907709638.406,111172,1747907709619.656,-72,-9,-141
1747907709658.281,111174,1747907709639.5,-65,-13,-143
1747907709678.094,111160,1747907709659.344,-71,-5,-143
1747907709697.938,111155,1747907709679.156,-61,-8,-140
1747907709717.812,111154,1747907709699.031,-71,-9,-137
1747907709737.656,111143,1747907709718.844,-66,-17,-157
1747907709757.5,111100,1747907709738.719,-73,-9,-135
1747907709777.344,111099,1747907709758.562,-63,-7,-141
1747907709797.156,111092,1747907709778.437,-72,-9,-127
1747907709817.031,111119,1747907709798.25,-65,-9,-140
1747907709836.844,111124,1747907709818.094,-64,-9,-141
1747907709856.719,111149,1747907709837.938,-75,-9,-136
1747907709876.563,111175,1747907709857.781,-61,-8,-136
1747907709896.406,111197,1747907709877.625,-73,-7,-130
1747907709916.281,111185,1747907709897.5,-61,-10,-144
1747907709936.188,111184,1747907709917.344,-76,-7,-132
1747907709955.969,111188,1747907709937.281,-76,-9,-141
1747907709975.813,111192,1747907709957.031,-64,-13,-141
1747907709995.687,111228,1747907709976.906,-63,-8,-137
1747907710015.562,111275,1747907709996.781,-81,-10,-139
1747907710035.375,111307,1747907710016.625,-64,-8,-144
1747907710055.219,111354,1747907710036.469,-71,-13,-143
1747907710075.063,111384,1747907710056.281,-74,-17,-144
1747907710094.937,111406,1747907710076.125,-64,-10,-149
1747907710114.75,111403,1747907710096.0,-64,-10,-140
1747907710134.625,111382,1747907710115.844,-72,-9,-145
1747907710154.469,111353,1747907710135.687,-68,-5,-140
1747907710174.312,111296,1747907710155.531,-69,-9,-138
1747907710194.187,111245,1747907710175.406,-68,-9,-141
1747907710214.031,111191,1747907710195.312,-66,-9,-140
1747907710233.875,111130,1747907710215.094,-72,-7,-134
1747907710253.75,111089,1747907710234.937,-61,-9,-136
1747907710273.594,111041,1747907710254.844,-66,-6,-138
1747907710293.469,110993,1747907710274.719,-69,-7,-134
1747907710313.344,110972,1747907710294.562,-63,-1,-144
1747907710333.188,110967,1747907710314.406,-74,-6,-137
1747907710353.031,110952,1747907710334.281,-41,-5,-141
1747907710372.906,110974,1747907710354.125,-63,-9,-137
1747907710392.875,110960,1747907710373.969,-64,-21,-137
1747907710412.625,110977,1747907710393.844,-64,-2,-141
1747907710432.437,110981,1747907710413.687,-71,-9,-137
1747907710452.312,110990,1747907710433.563,-59,-16,-142
1747907710472.156,110988,1747907710453.375,-63,-16,-136
1747907710492.031,110989,1747907710473.25,-64,-11,-138
1747907710511.844,110982,1747907710493.094,-73,-9,-140
1747907710531.719,111002,1747907710512.969,-72,-7,-144
1747907710551.562,111021,1747907710532.781,-72,-5,-142
1747907710571.438,111051,1747907710552.625,-64,-9,-138
1747907710591.25,111044,1747907710572.531,-76,-9,-137
1747907710611.125,111065,1747907710592.344,-64,-9,-134
1747907710631.0,111066,1747907710612.188,-57,-13,-137
1747907710650.844,111104,1747907710632.063,-66,-1,-138
1747907710670.719,111145,1747907710651.906,-63,-9,-143
1747907710690.5,111168,1747907710671.844,-68,-9,-141
1747907710710.375,111196,1747907710691.562,-70,-5,-132
1747907710730.219,111220,1747907710711.469,-65,-9,-140
1747907710750.063,111257,1747907710731.313,-81,-1,-135
1747907710769.906,111283,1747907710751.156,-65,-9,-136
1747907710789.781,111303,1747907710770.969,-71,-11,-146
1747907710809.625,111331,1747907710790.844,-63,-16,-136
1747907710829.469,111343,1747907710810.719,-65,-9,-136
1747907710849.313,111333,1747907710830.562,-61,-7,-138
1747907710869.1558,111288,1747907710850.375,-66,-9,-136
1747907710889.031,111238,1747907710870.25,-71,-5,-140
1747907710908.844,111175,1747907710890.094,-61,0,-138
1747907710928.719,111107,1747907710910.031,-68,-9,-138
1747907710948.563,111042,1747907710929.75,-61,-9,-145
1747907710968.406,110952,1747907710949.625,-66,-5,-138
1747907710988.281,110904,1747907710969.5,-74,-2,-133
1747907711008.094,110874,1747907710989.344,-61,-10,-135
1747907711027.938,110828,1747907711009.156,-57,-7,-138
1747907711047.781,110830,1747907711029.0,-64,-7,-143
1747907711067.625,110824,1747907711048.875,-69,-9,-138
1747907711087.437,110836,1747907711068.719,-81,-1,-144
1747907711107.312,110837,1747907711088.531,-60,-7,-136
1747907711127.188,110829,1747907711108.406,-72,-9,-141
1747907711147.063,110816,1747907711128.25,-72,-16,-145
1747907711166.875,110792,1747907711148.125,-63,-9,-138
1747907711186.687,110748,1747907711167.969,-73,-8,-137
1747907711206.563,110687,1747907711187.781,-61,-9,-138
1747907711226.438,110624,1747907711207.625,-69,-13,-134
1747907711246.25,110601,1747907711227.5,-74,-5,-144
1747907711266.125,110569,1747907711247.344,-68,-7,-136
1747907711285.969,110538,1747907711267.188,-65,-8,-141
1747907711305.813,110546,1747907711287.031,-64,-7,-130
1747907711325.656,110551,1747907711306.875,-72,-1,-141
1747907711345.531,110558,1747907711326.781,-65,-10,-134
1747907711365.375,110574,1747907711346.594,-80,-9,-141
1747907711385.25,110601,1747907711366.469,-66,-12,-141
1747907711405.063,110625,1747907711386.312,-73,-5,-138
1747907711424.937,110642,1747907711406.156,-77,-9,-143
1747907711444.812,110649,1747907711426.0,-73,-9,-141
1747907711464.625,110683,1747907711445.844,-64,-9,-143
1747907711484.469,110716,1747907711465.719,-72,-15,-157
1747907711504.344,110773,1747907711485.562,-63,-9,-138
1747907711524.187,110836,1747907711505.438,-73,-9,-137
1747907711544.062,110871,1747907711525.25,-63,-9,-144
1747907711563.875,110894,1747907711545.125,-61,-9,-138
1747907711583.75,110883,1747907711564.969,-71,-9,-141
1747907711603.594,110843,1747907711584.906,-67,-7,-140
1747907711623.469,110764,1747907711604.656,-71,-13,-142
1747907711643.312,110693,1747907711624.531,-63,-6,-138
1747907711663.156,110627,1747907711644.406,-63,-10,-144
1747907711683.125,110556,1747907711664.219,-71,-7,-135
1747907711702.875,110523,1747907711684.219,-72,-8,-138
1747907711722.719,110457,1747907711703.938,-64,-8,-136
1747907711742.656,110441,1747907711723.844,-61,-10,-138
1747907711762.438,110419,1747907711743.656,-77,-1,-132
1747907711782.312,110416,1747907711763.5,-64,-10,-135
1747907711802.125,110426,1747907711783.406,-71,-8,-137
1747907711822.0,110430,1747907711803.219,-61,-13,-125
1747907711841.875,110438,1747907711823.125,-72,-9,-136
1747907711861.688,110453,1747907711842.937,-72,-9,-137
1747907711881.531,110474,1747907711862.781,-64,-9,-145
1747907711901.375,110506,1747907711882.625,-64,-10,-138
1747907711921.219,110528,1747907711902.438,-68,-11,-134
1747907711941.094,110531,1747907711922.281,-63,-17,-145
1747907711960.938,110561,1747907711942.156,-61,-13,-134
1747907711980.781,110553,1747907711962.0,-72,-9,-132
1747907712000.625,110537,1747907711981.844,-65,-13,-136
1747907712020.594,110531,1747907712001.688,-74,-11,-132
1747907712040.344,110532,1747907712021.656,-77,-6,-141
1747907712060.156,110541,1747907712041.406,-68,-5,-138
1747907712080.094,110578,1747907712061.219,-64,-9,-138
1747907712099.875,110609,1747907712081.094,-65,-1,-149
1747907712119.719,110640,1747907712100.969,-77,-9,-136
1747907712139.531,110714,1747907712120.781,-65,-10,-137
1747907712159.406,110795,1747907712140.625,-74,-13,-129
1747907712179.25,110897,1747907712160.469,-63,-7,-140
1747907712199.094,111006,1747907712180.313,-72,-9,-154
1747907712218.9382,111135,1747907712200.156,-77,-9,-144
1747907712238.781,111277,1747907712220.031,-64,-10,-142
1747907712258.656,111399,1747907712239.875,-70,-10,-140
1747907712278.531,111485,1747907712259.75,-68,-6,-144
1747907712298.344,111590,1747907712279.594,-64,-8,-137
1747907712318.188,111645,1747907712299.437,-74,-10,-132
1747907712338.062,111688,1747907712319.25,-64,-7,-141
1747907712357.969,111707,1747907712339.125,-72,-9,-136
1747907712377.719,111717,1747907712359.031,-72,-13,-138
1747907712397.594,111735,1747907712378.812,-77,-9,-133
1747907712417.438,111745,1747907712398.656,-73,-9,-143
1747907712437.281,111731,1747907712418.5,-77,-1,-137
1747907712457.125,111745,1747907712438.375,-63,-12,-141
1747907712477.0,111720,1747907712458.25,-65,-10,-142
1747907712496.844,111719,1747907712478.062,-61,-17,-145
1747907712516.719,111735,1747907712497.937,-63,-9,-135
1747907712536.562,111749,1747907712517.781,-64,-9,-150
1747907712556.438,111786,1747907712537.656,-65,-4,-141
1747907712576.313,111816,1747907712557.5,-77,-4,-136
1747907712596.219,111838,1747907712577.375,-58,-7,-144
1747907712616.0,111854,1747907712597.313,-64,-5,-137
1747907712635.875,111885,1747907712617.094,-72,-7,-137
1747907712655.719,111869,1747907712636.937,-64,-10,-138
1747907712675.594,111857,1747907712656.781,-77,-8,-130
1747907712695.437,111859,1747907712676.656,-61,-9,-137
1747907712715.281,111827,1747907712696.531,-64,-8,-143
1747907712735.156,111822,1747907712716.3442,-73,-13,-140
1747907712755.031,111786,1747907712736.219,-64,-10,-137
1747907712774.812,111772,1747907712756.094,-72,-8,-143
1747907712794.687,111741,1747907712775.938,-63,-5,-141
1747907712814.531,111726,1747907712795.781,-79,-7,-140
1747907712834.406,111719,1747907712815.594,-68,-9,-135
1747907712854.219,111693,1747907712835.469,-77,-13,-134
1747907712874.094,111690,1747907712855.344,-73,-5,-143
1747907712893.937,111679,1747907712875.156,-61,-13,-145
1747907712913.781,111691,1747907712895.031,-70,-10,-136
1747907712933.656,111693,1747907712914.875,-64,-9,-130
1747907712953.469,111691,1747907712934.75,-74,-9,-130
1747907712973.312,111687,1747907712954.531,-63,-9,-138
1747907712993.187,111695,1747907712974.406,-72,-9,-137
1747907713013.031,111716,1747907712994.25,-72,-7,-135
1747907713032.875,111741,1747907713014.125,-71,-9,-134
1747907713052.7192,111750,1747907713033.937,-68,-2,-141
1747907713072.625,111742,1747907713053.781,-66,-15,-153
1747907713092.438,111689,1747907713073.719,-68,-10,-137
1747907713112.281,111606,1747907713093.5,-53,0,-149
1747907713132.125,111522,1747907713113.344,-64,-12,-142
1747907713152.0,111438,1747907713133.188,-77,-11,-138
1747907713171.844,111326,1747907713153.031,-68,-4,-143
1747907713191.688,111262,1747907713172.906,-72,-9,-138
1747907713211.531,111175,1747907713192.75,-77,-1,-145
1747907713231.406,111120,1747907713212.594,-66,-9,-137
1747907713251.25,111079,1747907713232.469,-74,-5,-136
1747907713271.094,111048,1747907713252.344,-68,-5,-138
1747907713290.938,111024,1747907713272.187,-77,-8,-142
1747907713310.812,111027,1747907713292.0,-68,-9,-133
1747907713330.625,111028,1747907713311.844,-64,-9,-133
1747907713350.469,111015,1747907713331.719,-78,-5,-137
1747907713370.375,110998,1747907713351.562,-67,-9,-136
1747907713390.156,110988,1747907713371.375,-68,-8,-136
1747907713410.031,110974,1747907713391.219,-65,-9,-144
1747907713429.844,110950,1747907713411.094,-66,-9,-133
1747907713449.687,110922,1747907713431.0,-65,-6,-138
1747907713469.563,110911,1747907713450.781,-67,-9,-140
1747907713489.406,110874,1747907713470.625,-65,-12,-134
1747907713509.25,110890,1747907713490.469,-68,-1,-126
1747907713529.094,110891,1747907713510.375,-64,-10,-133
1747907713548.938,110855,1747907713530.188,-63,-13,-142
1747907713568.813,110835,1747907713550.031,-79,-8,-141
1747907713588.625,110819,1747907713569.844,-64,-13,-145
1747907713608.531,110811,1747907713589.719,-69,-12,-136
1747907713628.344,110853,1747907713609.625,-64,-9,-144
1747907713648.219,110879,1747907713629.406,-72,-8,-137
1747907713668.031,110938,1747907713649.312,-64,-10,-138
1747907713687.906,111003,1747907713669.156,-74,-6,-132
1747907713707.75,111054,1747907713689.0,-68,-10,-138
1747907713727.625,111123,1747907713708.844,-74,-13,-145
1747907713747.469,111173,1747907713728.719,-64,-9,-151
1747907713767.313,111233,1747907713748.531,-64,-9,-137
1747907713787.156,111263,1747907713768.375,-65,-1,-143
1747907713807.031,111251,1747907713788.25,-74,-7,-142
1747907713826.844,111204,1747907713808.094,-64,-9,-141
1747907713846.719,111147,1747907713827.9368,-77,-4,-146
1747907713866.562,111077,1747907713847.781,-65,-10,-140
1747907713886.406,111019,1747907713867.594,-64,-9,-151
1747907713906.25,110965,1747907713887.5,-63,-9,-137
1747907713926.125,110902,1747907713907.375,-72,-11,-138
1747907713945.969,110828,1747907713927.187,-73,-7,-145
1747907713965.844,110790,1747907713947.063,-72,-9,-142
1747907713985.656,110745,1747907713966.906,-64,-9,-141
1747907714005.5,110708,1747907713986.812,-80,-1,-140
1747907714025.4058,110704,1747907714006.594,-64,0,-138
1747907714045.25,110696,1747907714026.469,-68,-5,-137
1747907714065.094,110697,1747907714046.313,-64,-10,-138
1747907714084.938,110689,1747907714066.188,-63,-9,-140
1747907714104.813,110658,1747907714086.031,-74,-10,-136
1747907714124.687,110646,1747907714105.875,-56,-7,-138
1747907714144.531,110628,1747907714125.75,-64,-10,-134
1747907714164.406,110619,1747907714145.625,-73,-13,-137
1747907714184.25,110618,1747907714165.469,-67,-4,-145
1747907714204.125,110639,1747907714185.312,-77,-6,-137
1747907714223.937,110617,1747907714205.188,-64,-13,-134
1747907714243.812,110630,1747907714225.031,-64,-8,-132
1747907714263.656,110639,1747907714244.875,-74,-9,-136
1747907714283.531,110652,1747907714264.719,-70,-9,-129
1747907714303.375,110684,1747907714284.688,-64,-9,-135
1747907714323.25,110706,1747907714304.469,-72,-9,-137
1747907714343.094,110727,1747907714324.313,-66,-5,-132
1747907714362.969,110731,1747907714344.187,-65,-9,-144
1747907714382.875,110741,1747907714364.031,-64,-13,-134
1747907714402.687,110756,1747907714383.938,-68,-7,-145
1747907714422.531,110789,1747907714403.719,-76,-11,-147
1747907714442.406,110806,1747907714423.563,-63,-7,-137
1747907714462.219,110851,1747907714443.469,-65,-13,-144
1747907714482.094,110901,1747907714463.281,-76,-8,-136
1747907714501.969,110926,1747907714483.156,-65,-9,-136
1747907714521.781,110905,1747907714503.031,-76,-17,-137
1747907714541.656,110871,1747907714522.875,-64,-10,-146
1747907714561.469,110818,1747907714542.719,-62,-9,-134
1747907714581.312,110735,1747907714562.531,-72,-7,-128
1747907714601.187,110647,1747907714582.406,-66,-9,-138
1747907714621.031,110585,1747907714602.25,-72,-12,-132
1747907714640.875,110497,1747907714622.094,-61,-9,-138
1747907714660.75,110453,1747907714641.906,-63,-8,-130
1747907714680.594,110404,1747907714661.813,-73,-9,-138
1747907714700.469,110379,1747907714681.6558,-74,-9,-138
1747907714720.281,110338,1747907714701.531,-65,-9,-140
1747907714740.156,110356,1747907714721.375,-71,-6,-137
1747907714760.0,110323,1747907714741.219,-61,-9,-135
1747907714779.875,110328,1747907714761.094,-74,-9,-136
1747907714799.688,110338,1747907714780.937,-71,-13,-138
1747907714819.563,110315,1747907714800.781,-68,-10,-136
1747907714839.406,110304,1747907714820.594,-71,-9,-145
1747907714859.25,110295,1747907714840.469,-64,-17,-148
1747907714879.094,110308,1747907714860.344,-61,-12,-134
1747907714898.969,110319,1747907714880.187,-72,-10,-144
1747907714918.813,110321,1747907714900.031,-64,-6,-153
1747907714938.687,110334,1747907714919.906,-77,-9,-138
1747907714958.469,110339,1747907714939.75,-61,-9,-138
1747907714978.344,110357,1747907714959.563,-65,-17,-148
1747907714998.188,110381,1747907714979.406,-69,-13,-141
1747907715018.0308,110399,1747907714999.25,-64,-9,-142
1747907715037.875,110423,1747907715019.125,-59,-9,-141
1747907715057.781,110453,1747907715038.969,-76,-13,-138
1747907715077.594,110482,1747907715058.844,-68,-8,-141
1747907715097.438,110514,1747907715078.656,-77,-9,-137
1747907715117.281,110556,1747907715098.5,-76,-9,-141
1747907715137.125,110583,1747907715118.375,-65,-17,-140
1747907715156.969,110622,1747907715138.188,-74,-11,-131
1747907715176.844,110641,1747907715158.062,-68,-7,-139
1747907715196.656,110693,1747907715177.937,-80,-9,-144
1747907715216.531,110696,1747907715197.75,-72,-9,-133
1747907715236.375,110691,1747907715217.594,-74,-5,-136
1747907715256.25,110646,1747907715237.437,-65,-9,-145
1747907715276.125,110584,1747907715257.281,-65,-9,-130
1747907715295.906,110511,1747907715277.188,-65,-1,-135
1747907715315.781,110413,1747907715297.0,-73,-13,-143
1747907715335.625,110342,1747907715316.844,-64,-7,-138
1747907715355.469,110297,1747907715336.687,-73,-9,-134
1747907715375.313,110249,1747907715356.562,-64,-13,-137
1747907715395.219,110221,1747907715376.375,-61,-10,-138
1747907715415.031,110203,1747907715396.281,-64,-9,-144
1747907715434.875,110195,1747907715416.125,-72,-4,-138
1747907715454.719,110184,1747907715435.969,-72,-9,-134
1747907715474.562,110175,1747907715455.812,-72,-10,-136
1747907715494.437,110179,1747907715475.656,-66,-12,-145
1747907715514.281,110182,1747907715495.5,-73,-11,-138
1747907715534.094,110184,1747907715515.344,-66,-25,-140
1747907715553.969,110165,1747907715535.187,-69,-10,-130
1747907715573.812,110176,1747907715555.031,-63,-11,-137
1747907715593.687,110197,1747907715574.875,-68,-9,-153
1747907715613.5,110212,1747907715594.75,-63,-15,-130
1747907715633.344,110239,1747907715614.562,-77,-8,-126
1747907715653.219,110272,1747907715634.437,-60,-13,-137
1747907715673.094,110302,1747907715654.281,-64,-10,-134
1747907715692.906,110328,1747907715674.156,-74,-9,-132
1747907715712.781,110355,1747907715694.0,-63,-7,-136
1747907715732.625,110387,1747907715713.844,-80,-9,-130
1747907715752.469,110431,1747907715733.687,-68,-9,-142
1747907715772.312,110481,1747907715753.563,-76,-4,-140
1747907715792.156,110531,1747907715773.375,-64,-11,-147
1747907715812.031,110592,1747907715793.219,-66,-17,-149
1747907715831.906,110651,1747907715813.094,-73,-13,-141
1747907715851.687,110698,1747907715832.969,-72,-4,-139
1747907715871.562,110748,1747907715852.813,-72,-8,-137
1747907715891.406,110804,1747907715872.5942,-64,-5,-137
1747907715911.281,110855,1747907715892.5,-68,-8,-142
1747907715931.094,110881,1747907715912.312,-64,-9,-149
1747907715950.937,110907,1747907715932.219,-65,-9,-143
1747907715970.781,110923,1747907715952.0,-64,-9,-136
1747907715990.656,110878,1747907715971.844,-77,0,-142
1747907716010.469,110808,1747907715991.687,-72,-9,-138
1747907716030.312,110743,1747907716011.563,-70,-13,-137
1747907716050.156,110687,1747907716031.375,-68,-9,-133
1747907716070.031,110634,1747907716051.219,-64,-5,-141
1747907716089.875,110607,1747907716071.094,-68,-9,-137
1747907716109.688,110582,1747907716090.937,-68,-4,-153
1747907716129.531,110547,1747907716110.75,-64,-7,-142
1747907716149.406,110551,1747907716130.594,-73,-9,-137
1747907716169.219,110548,1747907716150.469,-68,-7,-136
1747907716189.125,110547,1747907716170.312,-64,-10,-137
1747907716208.906,110544,1747907716190.156,-64,-4,-145
1747907716228.781,110562,1747907716209.969,-65,-11,-137
1747907716248.625,110582,1747907716229.844,-57,-13,-137
1747907716268.469,110580,1747907716249.687,-76,-5,-132
1747907716288.313,110608,1747907716269.531,-66,-13,-141
1747907716308.156,110617,1747907716289.375,-77,-10,-136
1747907716328.031,110633,1747907716309.344,-67,-7,-141
1747907716347.844,110663,1747907716329.094,-64,-11,-133
1747907716367.688,110688,1747907716348.937,-64,-9,-138
1747907716387.563,110705,1747907716368.75,-64,-17,-137
1747907716407.406,110736,1747907716388.625,-68,-13,-138
1747907716427.187,110769,1747907716408.469,-64,-7,-139
1747907716447.094,110819,1747907716428.313,-65,-15,-145
1747907716466.906,110856,1747907716448.156,-64,-9,-132
1747907716486.7808,110889,1747907716468.0,-64,-7,-136
1747907716506.625,110965,1747907716487.844,-67,-9,-136
1747907716526.5,111005,1747907716507.75,-69,-9,-136
1747907716546.313,111051,1747907716527.531,-64,-2,-135
1747907716566.281,111115,1747907716547.406,-74,-8,-130
1747907716585.969,111134,1747907716567.25,-63,-2,-141
1747907716605.844,111234,1747907716587.094,-79,-9,-129
1747907716625.688,111276,1747907716606.906,-76,-9,-137
1747907716645.531,111332,1747907716626.75,-64,-5,-134
1747907716665.344,111370,1747907716646.625,-64,-13,-138
1747907716685.219,111375,1747907716666.469,-76,-9,-136
1747907716705.062,111342,1747907716686.313,-71,-9,-132
1747907716724.938,111269,1747907716706.156,-64,-13,-141
1747907716744.781,111206,1747907716726.0,-74,-9,-137
1747907716764.625,111144,1747907716745.906,-48,-13,-138
1747907716784.469,111074,1747907716765.688,-73,-9,-138
1747907716804.344,111032,1747907716785.531,-65,-9,-133
1747907716824.188,110992,1747907716805.437,-72,-13,-138
1747907716844.031,110950,1747907716825.25,-64,-7,-134
1747907716863.844,110934,1747907716845.094,-76,-9,-138
1747907716883.719,110921,1747907716864.938,-66,-6,-136
1747907716903.594,110891,1747907716884.7808,-68,-9,-134
1747907716923.406,110903,1747907716904.656,-65,-8,-138
1747907716943.25,110895,1747907716924.469,-63,0,-137
1747907716963.094,110881,1747907716944.344,-72,-9,-143
1747907716982.969,110874,1747907716964.188,-61,-9,-138
1747907717002.781,110880,1747907716984.031,-72,-11,-137
1747907717022.625,110879,1747907717003.875,-69,-7,-138
1747907717042.469,110877,1747907717023.6868,-68,0,-141
1747907717062.344,110879,1747907717043.531,-74,-9,-137
1747907717082.156,110875,1747907717063.406,-76,-4,-138
1747907717102.0,110895,1747907717083.312,-67,-5,-141
1747907717121.906,110909,1747907717103.094,-73,-6,-138
1747907717141.719,110935,1747907717122.969,-66,-8,-141
1747907717161.531,110951,1747907717142.781,-57,0,-136
1747907717181.5,110990,1747907717162.656,-69,-9,-137
1747907717201.219,111015,1747907717182.594,-69,-9,-135
1747907717221.094,111065,1747907717202.312,-72,-9,-117
1747907717240.937,111088,1747907717222.219,-68,-9,-134
1747907717260.781,111141,1747907717242.031,-61,-7,-135
1747907717280.656,111172,1747907717261.844,-77,-7,-133
1747907717300.5,111196,1747907717281.687,-72,-7,-137
1747907717320.375,111233,1747907717301.562,-64,-5,-133
1747907717340.187,111291,1747907717321.5,-66,-9,-138
1747907717360.063,111334,1747907717341.219,-64,-13,-148
1747907717379.906,111370,1747907717361.125,-68,-10,-136
1747907717399.75,111378,1747907717380.969,-77,-7,-133
1747907717419.625,111356,1747907717400.844,-68,-13,-138
1747907717439.5,111298,1747907717420.719,-61,-4,-139
1747907717459.375,111209,1747907717440.562,-76,-7,-143
1747907717479.219,111136,1747907717460.437,-68,-13,-136
1747907717499.062,111083,1747907717480.281,-56,-7,-143
1747907717519.063,111031,1747907717500.156,-74,-9,-140
1747907717538.844,110991,1747907717520.156,-77,-5,-138
