Local: ,2025-05-22 00:00:00+02:00,tz_sec ,7200
Linux Epoch (ms):,1747864800000.0
Timestamp,Seq No.,ECG data
1747908198320.406,0,13639
1747908198321.406,0,15895
1747908198322.406,0,18394
1747908198323.406,0,20962
1747908198324.406,0,23377
1747908198325.281,0,25584
1747908198326.281,0,27544
1747908198327.281,0,29185
1747908198328.281,0,30536
1747908198329.281,0,31594
1747908198330.281,0,32407
1747908198331.281,1,33011
1747908198332.281,1,33386
1747908198333.281,1,33628
1747908198334.281,1,33760
1747908198335.281,1,33799
1747908198336.281,1,33768
1747908198337.281,1,33698
1747908198338.281,1,33605
1747908198339.281,1,33514
1747908198340.281,1,33440
1747908198341.188,1,33357
1747908198342.187,2,33269
1747908198343.188,2,33193
1747908198344.187,2,33143
1747908198345.188,2,33104
1747908198346.187,2,33068
1747908198347.188,2,33044
1747908198348.187,2,33027
1747908198349.188,2,33025
1747908198350.188,2,33028
1747908198351.187,2,33032
1747908198352.188,2,33040
1747908198353.187,3,33039
1747908198354.188,3,33043
1747908198355.187,3,33047
1747908198356.188,3,33048
1747908198357.062,3,33042
1747908198358.063,3,33023
1747908198359.062,3,33019
1747908198360.063,3,33020
1747908198361.063,3,33029
1747908198362.062,3,33014
1747908198363.063,3,32992
1747908198364.062,4,32973
1747908198365.063,4,32953
1747908198366.062,4,32942
1747908198367.063,4,32940
1747908198368.062,4,32942
1747908198369.063,4,32948
1747908198370.062,4,32947
1747908198371.063,4,32945
1747908198372.062,4,32945
1747908198372.937,4,32943
1747908198373.938,4,32928
1747908198374.937,5,32921
1747908198375.938,5,32914
1747908198376.937,5,32910
1747908198377.938,5,32911
1747908198378.937,5,32916
1747908198379.938,5,32917
1747908198380.937,5,32909
1747908198381.938,5,32904
1747908198382.937,5,32890
1747908198383.938,5,32879
1747908198384.937,5,32869
1747908198385.938,6,32871
1747908198386.937,6,32876
1747908198387.938,6,32877
1747908198388.781,6,32866
1747908198389.781,6,32860
1747908198390.781,6,32864
1747908198391.781,6,32867
1747908198392.781,6,32879
1747908198393.781,6,32878
1747908198394.781,6,32888
1747908198395.781,6,32897
1747908198396.781,7,32904
1747908198397.781,7,32914
1747908198398.781,7,32913
1747908198399.781,7,32901
1747908198400.781,7,32880
1747908198401.781,7,32858
1747908198402.781,7,32827
1747908198403.781,7,32809
1747908198404.656,7,32772
1747908198405.656,7,32743
1747908198406.656,7,32738
1747908198407.656,8,32756
1747908198408.6558,8,32786
1747908198409.656,8,32812
1747908198410.656,8,32828
1747908198411.656,8,32830
1747908198412.656,8,32836
1747908198413.656,8,32850
1747908198414.656,8,32847
1747908198415.656,8,32836
1747908198416.656,8,32815
1747908198417.656,8,32782
1747908198418.656,9,32741
1747908198419.656,9,32711
1747908198420.563,9,32696
1747908198421.562,9,32698
1747908198422.563,9,32712
1747908198423.563,9,32723
1747908198424.562,9,32723
1747908198425.563,9,32718
1747908198426.562,9,32719
1747908198427.563,9,32727
1747908198428.562,9,32793
1747908198429.563,10,32915
1747908198430.562,10,33100
1747908198431.563,10,33336
1747908198432.562,10,33614
1747908198433.563,10,33917
1747908198434.562,10,34243
1747908198435.563,10,34585
1747908198436.469,10,34929
1747908198437.469,10,35280
1747908198438.469,10,35624
1747908198439.469,10,35980
1747908198440.469,11,36349
1747908198441.469,11,36720
1747908198442.469,11,37071
1747908198443.469,11,37392
1747908198444.469,11,37678
1747908198445.469,11,37918
1747908198446.469,11,38143
1747908198447.469,11,38340
1747908198448.469,11,38528
1747908198449.469,11,38702
1747908198450.469,11,38871
1747908198451.469,12,39050
1747908198452.344,12,39261
1747908198453.344,12,39456
1747908198454.344,12,39679
1747908198455.344,12,39916
1747908198456.344,12,40180
1747908198457.344,12,40457
1747908198458.344,12,40738
1747908198459.344,12,41023
1747908198460.344,12,41319
1747908198461.344,12,41614
1747908198462.344,13,41911
1747908198463.344,13,42190
1747908198464.344,13,42451
1747908198465.344,13,42699
1747908198466.3442,13,42965
1747908198467.344,13,43183
1747908198468.219,13,43401
1747908198469.219,13,43612
1747908198470.219,13,43815
1747908198471.219,13,44005
1747908198472.219,13,44191
1747908198473.219,14,44364
1747908198474.219,14,44528
1747908198475.219,14,44689
1747908198476.219,14,44877
1747908198477.219,14,45080
1747908198478.219,14,45294
1747908198479.219,14,45506
1747908198480.219,14,45711
1747908198481.219,14,45908
1747908198482.219,14,46094
1747908198483.219,14,46273
1747908198484.094,15,46440
1747908198485.094,15,46609
1747908198486.094,15,46777
1747908198487.094,15,46954
1747908198488.094,15,47129
1747908198489.094,15,47309
1747908198490.094,15,47485
1747908198491.094,15,47660
1747908198492.094,15,47834
1747908198493.094,15,48002
1747908198494.094,15,48162
1747908198495.094,16,48314
1747908198496.094,16,48465
1747908198497.094,16,48622
1747908198498.094,16,48774
1747908198499.094,16,48925
1747908198500.0,16,49053
1747908198501.0,16,49173
1747908198502.0,16,49286
1747908198503.0,16,49405
1747908198504.0,16,49527
1747908198505.0,16,49651
1747908198506.0,17,49792
1747908198507.0,17,49909
1747908198508.0,17,50046
1747908198509.0,17,50190
1747908198510.0,17,50335
1747908198511.0,17,50480
1747908198512.0,17,50628
1747908198513.0,17,50766
1747908198514.0,17,50892
1747908198515.0,17,51011
1747908198515.875,17,51130
1747908198516.875,18,51256
1747908198517.875,18,51390
1747908198518.875,18,51545
1747908198519.875,18,51684
1747908198520.875,18,51801
1747908198521.875,18,51892
1747908198522.875,18,51975
1747908198523.875,18,52062
1747908198524.875,18,52162
1747908198525.875,18,52270
1747908198526.875,18,52395
1747908198527.875,19,52526
1747908198528.875,19,52657
1747908198529.875,19,52786
1747908198530.875,19,52913
1747908198531.781,19,53028
1747908198532.781,19,53144
1747908198533.781,19,53271
1747908198534.781,19,53402
1747908198535.781,19,53558
1747908198536.781,19,53696
1747908198537.781,19,53826
1747908198538.781,20,53950
1747908198539.781,20,54068
1747908198540.781,20,54189
1747908198541.781,20,54314
1747908198542.781,20,54433
1747908198543.781,20,54550
1747908198544.781,20,54655
1747908198545.781,20,54761
1747908198546.781,20,54846
1747908198547.625,20,54918
1747908198548.625,20,54990
1747908198549.625,21,55059
1747908198550.625,21,55122
1747908198551.625,21,55192
1747908198552.625,21,55262
1747908198553.625,21,55333
1747908198554.625,21,55415
1747908198555.625,21,55506
1747908198556.625,21,55598
1747908198557.625,21,55683
1747908198558.625,21,55749
1747908198559.625,21,55811
1747908198560.625,22,55869
1747908198561.625,22,55927
1747908198562.625,22,55989
1747908198563.5,22,56044
1747908198564.5,22,56104
1747908198565.5,22,56169
1747908198566.5,22,56238
1747908198567.5,22,56308
1747908198568.5,22,56388
1747908198569.5,22,56466
1747908198570.5,22,56543
1747908198571.5,23,56632
1747908198572.5,23,56738
1747908198573.5,23,56860
1747908198574.5,23,56956
1747908198575.5,23,57062
1747908198576.5,23,57158
1747908198577.5,23,57247
1747908198578.5,23,57334
1747908198579.437,23,57406
1747908198580.438,23,57465
1747908198581.437,23,57517
1747908198582.438,24,57567
1747908198583.437,24,57610
1747908198584.438,24,57655
1747908198585.437,24,57706
1747908198586.438,24,57757
1747908198587.437,24,57819
1747908198588.438,24,57894
1747908198589.437,24,57957
1747908198590.438,24,58030
1747908198591.437,24,58098
1747908198592.438,24,58168
1747908198593.437,25,58234
1747908198594.438,25,58294
1747908198595.344,25,58344
1747908198596.344,25,58391
1747908198597.344,25,58438
1747908198598.344,25,58505
1747908198599.344,25,58568
1747908198600.344,25,58622
1747908198601.344,25,58674
1747908198602.344,25,58736
1747908198603.344,25,58806
1747908198604.344,26,58872
1747908198605.344,26,58912
1747908198606.344,26,58933
1747908198607.344,26,58936
1747908198608.344,26,58910
1747908198609.344,26,58873
1747908198610.344,26,58834
1747908198611.219,26,58796
1747908198612.219,26,58760
1747908198613.219,26,58725
1747908198614.219,26,58691
1747908198615.2192,27,58676
1747908198616.219,27,58668
1747908198617.219,27,58676
1747908198618.219,27,58684
1747908198619.219,27,58699
1747908198620.219,27,58711
1747908198621.219,27,58711
1747908198622.219,27,58695
1747908198623.219,27,58666
1747908198624.219,27,58615
1747908198625.219,27,58562
1747908198626.219,28,58495
1747908198627.063,28,58412
1747908198628.062,28,58320
1747908198629.062,28,58250
1747908198630.063,28,58199
1747908198631.062,28,58184
1747908198632.063,28,58184
1747908198633.0618,28,58212
1747908198634.063,28,58254
1747908198635.062,28,58310
1747908198636.063,28,58376
1747908198637.062,29,58452
1747908198638.063,29,58531
1747908198639.062,29,58589
1747908198640.063,29,58627
1747908198641.062,29,58653
1747908198642.063,29,58665
1747908198642.938,29,58658
1747908198643.937,29,58639
1747908198644.938,29,58622
1747908198645.937,29,58603
1747908198646.938,29,58591
1747908198647.937,30,58584
1747908198648.938,30,58567
1747908198649.937,30,58559
1747908198650.938,30,58557
1747908198651.937,30,58560
1747908198652.938,30,58579
1747908198653.937,30,58602
1747908198654.938,30,58635
1747908198655.937,30,58656
1747908198656.938,30,58659
1747908198657.938,30,58652
1747908198658.844,31,58631
1747908198659.844,31,58614
1747908198660.844,31,58590
1747908198661.844,31,58572
1747908198662.844,31,58554
1747908198663.844,31,58536
1747908198664.844,31,58519
1747908198665.844,31,58513
1747908198666.844,31,58513
1747908198667.844,31,58530
1747908198668.844,31,58528
1747908198669.844,32,58532
1747908198670.844,32,58534
1747908198671.844,32,58532
1747908198672.844,32,58539
1747908198673.844,32,58557
1747908198674.688,32,58573
1747908198675.687,32,58560
1747908198676.688,32,58543
1747908198677.687,32,58518
1747908198678.688,32,58498
1747908198679.688,32,58493
1747908198680.687,33,58486
1747908198681.688,33,58484
1747908198682.687,33,58497
1747908198683.688,33,58509
1747908198684.687,33,58514
1747908198685.688,33,58530
1747908198686.687,33,58543
1747908198687.6882,33,58551
1747908198688.687,33,58556
1747908198689.688,33,58560
1747908198690.594,33,58546
1747908198691.594,34,58522
1747908198692.594,34,58499
1747908198693.594,34,58479
1747908198694.594,34,58464
1747908198695.594,34,58456
1747908198696.594,34,58454
1747908198697.594,34,58457
1747908198698.594,34,58467
1747908198699.594,34,58491
1747908198700.594,34,58517
1747908198701.594,34,58536
1747908198702.594,35,58544
1747908198703.594,35,58552
1747908198704.594,35,58548
1747908198705.594,35,58538
1747908198706.437,35,58521
1747908198707.438,35,58488
1747908198708.437,35,58465
1747908198709.438,35,58432
1747908198710.437,35,58400
1747908198711.438,35,58366
1747908198712.437,35,58329
1747908198713.438,36,58287
1747908198714.437,36,58248
1747908198715.438,36,58222
1747908198716.437,36,58216
1747908198717.438,36,58214
1747908198718.437,36,58214
1747908198719.438,36,58220
1747908198720.438,36,58224
1747908198721.437,36,58214
1747908198722.313,36,58205
1747908198723.312,36,58192
1747908198724.313,37,58191
1747908198725.312,37,58191
1747908198726.3132,37,58182
1747908198727.312,37,58174
1747908198728.313,37,58168
1747908198729.312,37,58161
1747908198730.313,37,58166
1747908198731.313,37,58164
1747908198732.312,37,58164
1747908198733.313,37,58164
1747908198734.312,37,58152
1747908198735.313,38,58139
1747908198736.312,38,58138
1747908198737.313,38,58137
1747908198738.219,38,58115
1747908198739.219,38,58084
1747908198740.2192,38,58046
1747908198741.219,38,58001
1747908198742.219,38,57955
1747908198743.219,38,57906
1747908198744.219,38,57871
1747908198745.219,38,57848
1747908198746.219,39,57838
1747908198747.219,39,57839
1747908198748.219,39,57839
1747908198749.219,39,57832
1747908198750.219,39,57828
1747908198751.219,39,57822
1747908198752.219,39,57823
1747908198753.219,39,57837
1747908198754.094,39,57844
1747908198755.094,39,57843
1747908198756.094,39,57831
1747908198757.094,40,57813
1747908198758.094,40,57798
1747908198759.094,40,57775
1747908198760.094,40,57748
1747908198761.094,40,57718
1747908198762.094,40,57699
1747908198763.094,40,57686
1747908198764.094,40,57672
1747908198765.094,40,57656
1747908198766.094,40,57640
1747908198767.094,40,57630
1747908198768.094,41,57609
1747908198769.094,41,57594
1747908198769.969,41,57568
1747908198770.969,41,57528
1747908198771.969,41,57495
1747908198772.969,41,57458
1747908198773.969,41,57435
1747908198774.969,41,57414
1747908198775.969,41,57405
1747908198776.969,41,57407
1747908198777.969,41,57413
1747908198778.969,42,57409
1747908198779.969,42,57417
1747908198780.969,42,57421
1747908198781.969,42,57428
1747908198782.969,42,57433
1747908198783.969,42,57434
1747908198784.969,42,57425
1747908198785.812,42,57401
1747908198786.813,42,57363
1747908198787.812,42,57317
1747908198788.8132,42,57267
1747908198789.812,43,57207
1747908198790.813,43,57152
1747908198791.812,43,57099
1747908198792.813,43,57056
1747908198793.813,43,57038
1747908198794.812,43,57041
1747908198795.813,43,57038
1747908198796.812,43,57024
1747908198797.813,43,57006
1747908198798.812,43,56984
1747908198799.813,43,56954
1747908198800.812,44,56918
1747908198801.688,44,56880
1747908198802.687,44,56836
1747908198803.688,44,56806
1747908198804.688,44,56777
1747908198805.687,44,56772
1747908198806.688,44,56777
1747908198807.687,44,56785
1747908198808.688,44,56792
1747908198809.687,44,56808
1747908198810.688,44,56814
1747908198811.687,45,56815
1747908198812.6882,45,56806
1747908198813.687,45,56786
1747908198814.688,45,56766
1747908198815.687,45,56731
1747908198816.688,45,56682
1747908198817.563,45,56615
1747908198818.562,45,56540
1747908198819.563,45,56456
1747908198820.5618,45,56375
1747908198821.563,45,56305
1747908198822.562,46,56252
1747908198823.563,46,56210
1747908198824.562,46,56181
1747908198825.563,46,56174
1747908198826.562,46,56164
1747908198827.563,46,56155
1747908198828.562,46,56152
1747908198829.563,46,56153
1747908198830.562,46,56155
1747908198831.563,46,56150
1747908198832.562,46,56133
1747908198833.469,47,56091
1747908198834.469,47,56041
1747908198835.469,47,56002
1747908198836.469,47,55969
1747908198837.469,47,55938
1747908198838.469,47,55909
1747908198839.469,47,55874
1747908198840.469,47,55841
1747908198841.469,47,55825
1747908198842.469,47,55810
1747908198843.469,47,55799
1747908198844.469,48,55785
1747908198845.469,48,55762
1747908198846.469,48,55735
1747908198847.469,48,55714
1747908198848.469,48,55690
1747908198849.344,48,55664
1747908198850.344,48,55620
1747908198851.344,48,55580
1747908198852.344,48,55526
1747908198853.344,48,55474
1747908198854.344,48,55418
1747908198855.344,49,55361
1747908198856.344,49,55299
1747908198857.344,49,55240
1747908198858.344,49,55187
1747908198859.344,49,55148
1747908198860.344,49,55120
1747908198861.344,49,55107
1747908198862.344,49,55102
1747908198863.344,49,55108
1747908198864.344,49,55096
1747908198865.2192,49,55076
1747908198866.219,50,55034
1747908198867.219,50,54980
1747908198868.219,50,54928
1747908198869.219,50,54874
1747908198870.219,50,54813
1747908198871.219,50,54756
1747908198872.219,50,54708
1747908198873.219,50,54680
1747908198874.219,50,54664
1747908198875.219,50,54645
1747908198876.219,50,54620
1747908198877.219,51,54587
1747908198878.219,51,54556
1747908198879.219,51,54516
1747908198880.219,51,54488
1747908198881.094,51,54472
1747908198882.094,51,54464
1747908198883.094,51,54455
1747908198884.094,51,54449
1747908198885.094,51,54424
1747908198886.094,51,54399
1747908198887.094,51,54370
1747908198888.094,52,54344
1747908198889.094,52,54328
1747908198890.094,52,54316
1747908198891.094,52,54296
1747908198892.094,52,54259
1747908198893.094,52,54211
1747908198894.094,52,54152
1747908198895.094,52,54102
1747908198896.094,52,54050
1747908198897.0,52,54004
1747908198898.0,52,53951
1747908198899.0,53,53901
1747908198900.0,53,53841
1747908198901.0,53,53796
1747908198902.0,53,53755
1747908198903.0,53,53726
1747908198904.0,53,53707
1747908198905.0,53,53698
1747908198906.0,53,53686
1747908198907.0,53,53672
1747908198908.0,53,53655
1747908198909.0,53,53640
1747908198910.0,54,53624
1747908198911.0,54,53596
1747908198912.0,54,53573
1747908198912.875,54,53543
1747908198913.875,54,53510
1747908198914.875,54,53473
1747908198915.875,54,53434
1747908198916.875,54,53399
1747908198917.875,54,53363
1747908198918.875,54,53328
1747908198919.875,54,53302
1747908198920.875,55,53292
1747908198921.875,55,53285
1747908198922.875,55,53282
1747908198923.875,55,53268
1747908198924.875,55,53244
1747908198925.875,55,53204
1747908198926.875,55,53154
1747908198927.875,55,53094
1747908198928.75,55,53022
1747908198929.75,55,52944
1747908198930.75,55,52860
1747908198931.75,56,52796
1747908198932.75,56,52756
1747908198933.75,56,52736
1747908198934.75,56,52717
1747908198935.75,56,52714
1747908198936.75,56,52724
1747908198937.75,56,52737
1747908198938.75,56,52754
1747908198939.75,56,52763
1747908198940.75,56,52767
1747908198941.75,56,52764
1747908198942.75,57,52749
1747908198943.75,57,52723
1747908198944.625,57,52681
1747908198945.625,57,52640
1747908198946.625,57,52589
1747908198947.625,57,52544
1747908198948.625,57,52500
1747908198949.625,57,52459
1747908198950.625,57,52425
1747908198951.625,57,52396
1747908198952.625,57,52383
1747908198953.625,58,52375
1747908198954.625,58,52377
1747908198955.625,58,52380
1747908198956.625,58,52389
1747908198957.625,58,52401
1747908198958.625,58,52417
1747908198959.625,58,52423
1747908198960.5,58,52406
1747908198961.5,58,52375
1747908198962.5,58,52336
1747908198963.5,58,52304
1747908198964.5,59,52262
1747908198965.5,59,52215
1747908198966.5,59,52158
1747908198967.5,59,52099
1747908198968.5,59,52050
1747908198969.5,59,52009
1747908198970.5,59,51970
1747908198971.5,59,51934
1747908198972.5,59,51901
1747908198973.5,59,51880
1747908198974.5,59,51870
1747908198975.5,60,51860
1747908198976.406,60,51841
1747908198977.406,60,51820
1747908198978.406,60,51793
1747908198979.406,60,51761
1747908198980.406,60,51733
1747908198981.406,60,51693
1747908198982.406,60,51650
1747908198983.406,60,51617
1747908198984.406,60,51589
1747908198985.406,60,51567
1747908198986.406,61,51542
1747908198987.406,61,51514
1747908198988.406,61,51481
1747908198989.406,61,51448
1747908198990.406,61,51420
1747908198991.406,61,51391
1747908198992.312,61,51367
1747908198993.313,61,51336
1747908198994.312,61,51319
1747908198995.313,61,51306
1747908198996.312,61,51301
1747908198997.313,62,51287
1747908198998.312,62,51268
1747908198999.312,62,51246
1747908199000.313,62,51215
1747908199001.312,62,51174
1747908199002.313,62,51118
1747908199003.312,62,51063
1747908199004.313,62,51015
1747908199005.312,62,50964
1747908199006.313,62,50914
1747908199007.312,62,50878
1747908199008.188,63,50836
1747908199009.187,63,50799
1747908199010.187,63,50769
1747908199011.188,63,50743
1747908199012.187,63,50730
1747908199013.188,63,50723
1747908199014.187,63,50722
1747908199015.188,63,50727
1747908199016.187,63,50721
1747908199017.188,63,50722
1747908199018.187,63,50710
1747908199019.188,64,50695
1747908199020.187,64,50668
1747908199021.188,64,50617
1747908199022.187,64,50549
1747908199023.1882,64,50479
1747908199024.063,64,50401
1747908199025.062,64,50340
1747908199026.063,64,50288
1747908199027.062,64,50256
1747908199028.063,64,50233
1747908199029.062,64,50222
1747908199030.063,65,50218
1747908199031.0618,65,50211
1747908199032.063,65,50225
1747908199033.062,65,50228
1747908199034.063,65,50224
1747908199035.062,65,50203
1747908199036.063,65,50181
1747908199037.062,65,50149
1747908199038.063,65,50123
1747908199039.062,65,50092
1747908199039.906,65,50054
1747908199040.906,66,50011
1747908199041.906,66,49974
1747908199042.906,66,49926
1747908199043.906,66,49884
1747908199044.906,66,49844
1747908199045.906,66,49805
1747908199046.906,66,49777
1747908199047.906,66,49763
1747908199048.906,66,49751
1747908199049.906,66,49736
1747908199050.906,66,49730
1747908199051.906,67,49726
1747908199052.906,67,49711
1747908199053.906,67,49697
1747908199054.906,67,49677
1747908199055.813,67,49646
1747908199056.812,67,49592
1747908199057.813,67,49542
1747908199058.812,67,49482
1747908199059.813,67,49430
1747908199060.812,67,49382
1747908199061.812,67,49329
1747908199062.813,68,49270
1747908199063.812,68,49235
1747908199064.813,68,49210
1747908199065.812,68,49195
1747908199066.813,68,49179
1747908199067.812,68,49160
1747908199068.813,68,49134
1747908199069.812,68,49106
1747908199070.813,68,49087
1747908199071.687,68,49061
1747908199072.687,68,49024
1747908199073.688,69,48998
1747908199074.687,69,48974
1747908199075.688,69,48951
1747908199076.687,69,48932
1747908199077.688,69,48908
1747908199078.687,69,48882
1747908199079.688,69,48861
1747908199080.687,69,48834
1747908199081.688,69,48804
1747908199082.687,69,48783
1747908199083.688,69,48762
1747908199084.687,70,48742
1747908199085.6882,70,48719
1747908199086.687,70,48691
1747908199087.562,70,48655
1747908199088.563,70,48596
1747908199089.562,70,48535
1747908199090.563,70,48475
1747908199091.562,70,48413
1747908199092.563,70,48361
1747908199093.5618,70,48320
1747908199094.563,70,48282
1747908199095.562,71,48262
1747908199096.563,71,48259
1747908199097.562,71,48269
1747908199098.563,71,48284
1747908199099.562,71,48279
1747908199100.563,71,48253
1747908199101.562,71,48210
1747908199102.562,71,48164
1747908199103.438,71,48104
1747908199104.437,71,48033
1747908199105.438,71,47972
1747908199106.437,72,47923
1747908199107.438,72,47876
1747908199108.437,72,47837
1747908199109.438,72,47808
1747908199110.437,72,47783
1747908199111.438,72,47770
1747908199112.437,72,47777
1747908199113.437,72,47787
1747908199114.438,72,47796
1747908199115.437,72,47795
1747908199116.438,72,47789
1747908199117.4368,73,47765
1747908199118.438,73,47724
1747908199119.281,73,47670
1747908199120.281,73,47620
1747908199121.281,73,47578
1747908199122.281,73,47544
1747908199123.281,73,47517
1747908199124.281,73,47483
1747908199125.281,73,47446
1747908199126.281,73,47397
1747908199127.281,73,47358
1747908199128.281,74,47328
1747908199129.281,74,47295
1747908199130.281,74,47253
1747908199131.281,74,47208
1747908199132.281,74,47175
1747908199133.281,74,47138
1747908199134.281,74,47111
1747908199135.187,74,47079
1747908199136.188,74,47048
1747908199137.187,74,47016
1747908199138.188,74,46978
1747908199139.187,75,46940
1747908199140.188,75,46906
1747908199141.187,75,46865
1747908199142.188,75,46839
1747908199143.187,75,46822
1747908199144.188,75,46810
1747908199145.187,75,46795
1747908199146.188,75,46773
1747908199147.187,75,46757
1747908199148.1882,75,46752
1747908199149.187,75,46752
1747908199150.188,76,46755
1747908199151.063,76,46742
1747908199152.062,76,46716
1747908199153.063,76,46685
1747908199154.062,76,46646
1747908199155.063,76,46605
1747908199156.0618,76,46549
1747908199157.063,76,46484
1747908199158.062,76,46416
1747908199159.063,76,46350
1747908199160.062,76,46293
1747908199161.063,77,46243
1747908199162.062,77,46209
1747908199163.063,77,46176
1747908199164.062,77,46140
1747908199165.062,77,46113
1747908199166.063,77,46091
1747908199166.937,77,46079
1747908199167.938,77,46062
1747908199168.937,77,46045
1747908199169.938,77,46026
1747908199170.937,77,46018
1747908199171.938,78,46015
1747908199172.937,78,46009
1747908199173.938,78,45995
1747908199174.937,78,45974
1747908199175.937,78,45942
1747908199176.938,78,45917
1747908199177.937,78,45884
1747908199178.938,78,45853
1747908199179.9368,78,45829
1747908199180.938,78,45807
1747908199181.937,78,45790
1747908199182.844,79,45768
1747908199183.844,79,45743
1747908199184.844,79,45726
1747908199185.844,79,45710
1747908199186.844,79,45698
1747908199187.844,79,45671
1747908199188.844,79,45639
1747908199189.844,79,45614
1747908199190.844,79,45589
1747908199191.844,79,45575
1747908199192.844,79,45572
1747908199193.844,80,45564
1747908199194.844,80,45566
1747908199195.844,80,45563
1747908199196.844,80,45539
1747908199197.844,80,45488
1747908199198.656,80,45420
1747908199199.656,80,45342
1747908199200.656,80,45265
1747908199201.656,80,45191
1747908199202.656,80,45127
1747908199203.656,80,45086
1747908199204.656,81,45069
1747908199205.656,81,45056
1747908199206.656,81,45046
1747908199207.656,81,45045
1747908199208.656,81,45049
1747908199209.656,81,45057
1747908199210.656,81,45052
1747908199211.656,81,45027
1747908199212.656,81,44985
1747908199213.656,81,44944
1747908199214.594,81,44904
1747908199215.594,82,44868
1747908199216.594,82,44837
1747908199217.594,82,44799
1747908199218.594,82,44768
1747908199219.594,82,44730
1747908199220.594,82,44683
1747908199221.594,82,44623
1747908199222.594,82,44578
1747908199223.594,82,44555
1747908199224.5942,82,44545
1747908199225.594,82,44535
1747908199226.594,83,44524
1747908199227.594,83,44516
1747908199228.594,83,44510
1747908199229.594,83,44496
1747908199230.438,83,44468
1747908199231.437,83,44424
1747908199232.438,83,44384
1747908199233.437,83,44344
1747908199234.438,83,44310
1747908199235.437,83,44282
1747908199236.438,83,44265
1747908199237.437,84,44245
1747908199238.437,84,44230
1747908199239.438,84,44223
1747908199240.437,84,44223
1747908199241.438,84,44222
1747908199242.4368,84,44223
1747908199243.438,84,44211
1747908199244.437,84,44184
1747908199245.438,84,44162
1747908199246.312,84,44123
1747908199247.313,84,44065
1747908199248.312,85,43994
1747908199249.312,85,43927
1747908199250.313,85,43850
1747908199251.312,85,43771
1747908199252.313,85,43696
1747908199253.312,85,43621
1747908199254.313,85,43557
1747908199255.312,85,43509
1747908199256.313,85,43483
1747908199257.312,85,43483
1747908199258.313,85,43484
1747908199259.312,86,43473
1747908199260.313,86,43456
1747908199261.312,86,43437
1747908199262.25,86,43418
1747908199263.25,86,43386
1747908199264.25,86,43356
1747908199265.25,86,43317
1747908199266.25,86,43279
1747908199267.25,86,43234
1747908199268.25,86,43176
1747908199269.25,86,43115
1747908199270.25,87,43065
1747908199271.25,87,43010
1747908199272.25,87,42959
1747908199273.25,87,42908
1747908199274.25,87,42853
1747908199275.25,87,42789
1747908199276.25,87,42721
1747908199277.25,87,42655
1747908199278.063,87,42581
1747908199279.062,87,42520
1747908199280.063,87,42476
1747908199281.0618,88,42454
1747908199282.063,88,42449
1747908199283.062,88,42436
1747908199284.063,88,42420
1747908199285.062,88,42395
1747908199286.063,88,42370
1747908199287.062,88,42335
1747908199288.063,88,42292
1747908199289.062,88,42238
1747908199290.062,88,42191
1747908199291.063,88,42143
1747908199292.062,89,42098
1747908199293.063,89,42064
1747908199294.0,89,42029
1747908199295.0,89,41992
1747908199296.0,89,41954
1747908199297.0,89,41920
1747908199298.0,89,41892
1747908199299.0,89,41875
1747908199300.0,89,41870
1747908199301.0,89,41869
1747908199302.0,89,41863
1747908199303.0,90,41863
1747908199304.0,90,41863
1747908199305.0,90,41867
1747908199306.0,90,41866
1747908199307.0,90,41863
1747908199308.0,90,41863
1747908199309.0,90,41866
1747908199309.875,90,41862
1747908199310.875,90,41837
1747908199311.875,90,41798
1747908199312.875,90,41746
1747908199313.875,91,41661
1747908199314.875,91,41566
1747908199315.875,91,41474
1747908199316.875,91,41406
1747908199317.875,91,41373
1747908199318.875,91,41357
1747908199319.875,91,41348
1747908199320.875,91,41350
1747908199321.875,91,41357
1747908199322.875,91,41361
1747908199323.875,91,41361
1747908199324.875,92,41356
1747908199325.75,92,41355
1747908199326.75,92,41334
1747908199327.75,92,41320
1747908199328.75,92,41307
1747908199329.75,92,41294
1747908199330.75,92,41277
1747908199331.75,92,41265
1747908199332.75,92,41251
1747908199333.75,92,41252
1747908199334.75,92,41256
1747908199335.75,93,41261
1747908199336.75,93,41258
1747908199337.75,93,41243
1747908199338.75,93,41220
1747908199339.75,93,41185
1747908199340.75,93,41145
1747908199341.625,93,41082
1747908199342.625,93,41011
1747908199343.625,93,40942
1747908199344.625,93,40877
1747908199345.625,93,40834
1747908199346.625,94,40807
1747908199347.625,94,40811
1747908199348.625,94,40831
1747908199349.625,94,40865
1747908199350.625,94,40915
1747908199351.625,94,40974
1747908199352.625,94,41029
1747908199353.625,94,41078
1747908199354.625,94,41115
1747908199355.625,94,41145
1747908199356.625,94,41178
1747908199357.5,95,41199
1747908199358.5,95,41213
1747908199359.5,95,41220
1747908199360.5,95,41231
1747908199361.5,95,41251
1747908199362.5,95,41258
1747908199363.5,95,41249
1747908199364.5,95,41243
1747908199365.5,95,41256
1747908199366.5,95,41299
1747908199367.5,95,41349
1747908199368.5,96,41399
1747908199369.5,96,41444
1747908199370.5,96,41480
1747908199371.5,96,41492
1747908199372.5,96,41463
1747908199373.406,96,41389
1747908199374.406,96,41283
1747908199375.406,96,41161
1747908199376.406,96,41047
1747908199377.4058,96,40956
1747908199378.406,96,40879
1747908199379.406,97,40811
1747908199380.406,97,40753
1747908199381.406,97,40709
1747908199382.406,97,40684
1747908199383.406,97,40651
1747908199384.406,97,40615
1747908199385.406,97,40582
1747908199386.406,97,40550
1747908199387.406,97,40505
1747908199388.406,97,40437
1747908199389.313,97,40344
1747908199390.312,98,40236
1747908199391.313,98,40138
1747908199392.313,98,40043
1747908199393.312,98,39943
1747908199394.313,98,39859
1747908199395.312,98,39791
1747908199396.313,98,39736
1747908199397.312,98,39696
1747908199398.313,98,39673
1747908199399.312,98,39647
1747908199400.313,98,39611
1747908199401.312,99,39574
1747908199402.313,99,39536
1747908199403.312,99,39510
1747908199404.313,99,39514
1747908199405.188,99,39523
1747908199406.187,99,39540
1747908199407.188,99,39563
1747908199408.187,99,39578
1747908199409.188,99,39587
1747908199410.187,99,39607
1747908199411.188,99,39631
1747908199412.187,100,39660
1747908199413.188,100,39683
1747908199414.187,100,39677
1747908199415.188,100,39651
1747908199416.187,100,39619
1747908199417.188,100,39589
1747908199418.187,100,39552
1747908199419.188,100,39510
1747908199420.187,100,39467
1747908199421.062,100,39411
1747908199422.0632,100,39350
1747908199423.062,101,39296
1747908199424.063,101,39261
1747908199425.062,101,39231
1747908199426.063,101,39209
1747908199427.062,101,39203
1747908199428.063,101,39205
1747908199429.062,101,39211
1747908199430.063,101,39240
1747908199431.062,101,39279
1747908199432.062,101,39305
1747908199433.063,101,39315
1747908199434.062,102,39325
1747908199435.063,102,39329
1747908199436.062,102,39318
1747908199436.906,102,39291
1747908199437.906,102,39249
1747908199438.906,102,39214
1747908199439.9058,102,39184
1747908199440.906,102,39145
1747908199441.906,102,39096
1747908199442.906,102,39038
1747908199443.906,102,38980
1747908199444.906,103,38938
1747908199445.906,103,38910
1747908199446.906,103,38895
1747908199447.906,103,38877
1747908199448.906,103,38861
1747908199449.906,103,38847
1747908199450.906,103,38825
1747908199451.906,103,38804
1747908199452.781,103,38791
1747908199453.781,103,38784
1747908199454.781,103,38791
1747908199455.781,104,38804
1747908199456.781,104,38808
1747908199457.781,104,38809
1747908199458.781,104,38791
1747908199459.781,104,38761
1747908199460.781,104,38730
1747908199461.781,104,38709
1747908199462.781,104,38684
1747908199463.781,104,38653
1747908199464.781,104,38609
1747908199465.781,104,38555
1747908199466.781,105,38502
1747908199467.781,105,38470
1747908199468.687,105,38446
1747908199469.688,105,38409
1747908199470.687,105,38364
1747908199471.688,105,38325
1747908199472.687,105,38302
1747908199473.688,105,38311
1747908199474.687,105,38314
1747908199475.688,105,38308
1747908199476.687,105,38311
1747908199477.688,106,38317
1747908199478.687,106,38314
1747908199479.688,106,38315
1747908199480.687,106,38304
1747908199481.688,106,38296
1747908199482.687,106,38275
1747908199483.687,106,38256
1747908199484.5632,106,38222
1747908199485.562,106,38198
1747908199486.563,106,38178
1747908199487.562,106,38164
1747908199488.563,107,38150
1747908199489.562,107,38131
1747908199490.563,107,38121
1747908199491.562,107,38109
1747908199492.563,107,38091
1747908199493.562,107,38066
1747908199494.562,107,38034
1747908199495.563,107,38005
1747908199496.562,107,37973
1747908199497.563,107,37957
1747908199498.562,107,37956
1747908199499.563,108,37959
1747908199500.437,108,37943
1747908199501.438,108,37931
1747908199502.437,108,37912
1747908199503.438,108,37898
1747908199504.437,108,37879
1747908199505.438,108,37868
1747908199506.438,108,37865
1747908199507.437,108,37867
1747908199508.438,108,37869
1747908199509.437,108,37874
1747908199510.438,109,37881
1747908199511.437,109,37887
1747908199512.438,109,37893
1747908199513.437,109,37892
1747908199514.438,109,37894
1747908199515.4368,109,37879
1747908199516.281,109,37833
1747908199517.281,109,37805
1747908199518.281,109,37776
1747908199519.281,109,37755
1747908199520.281,109,37749
1747908199521.281,110,37750
1747908199522.281,110,37745
1747908199523.281,110,37741
1747908199524.281,110,37743
1747908199525.281,110,37757
1747908199526.281,110,37769
1747908199527.281,110,37782
1747908199528.281,110,37781
1747908199529.281,110,37773
1747908199530.281,110,37766
1747908199531.281,110,37746
1747908199532.188,111,37707
1747908199533.187,111,37668
1747908199534.188,111,37627
1747908199535.187,111,37593
1747908199536.188,111,37567
1747908199537.187,111,37545
1747908199538.188,111,37536
1747908199539.187,111,37537
1747908199540.188,111,37559
1747908199541.187,111,37592
1747908199542.188,111,37622
1747908199543.187,112,37652
1747908199544.188,112,37683
1747908199545.187,112,37696
1747908199546.187,112,37700
1747908199547.188,112,37701
1747908199548.062,112,37685
1747908199549.063,112,37659
1747908199550.062,112,37635
1747908199551.063,112,37612
1747908199552.062,112,37590
1747908199553.063,112,37574
1747908199554.062,113,37547
1747908199555.063,113,37533
1747908199556.062,113,37529
1747908199557.062,113,37542
1747908199558.063,113,37549
1747908199559.062,113,37560
1747908199560.063,113,37573
1747908199561.062,113,37578
1747908199562.063,113,37570
1747908199563.062,113,37560
1747908199563.938,113,37541
1747908199564.937,114,37516
1747908199565.938,114,37494
1747908199566.937,114,37474
1747908199567.938,114,37467
1747908199568.938,114,37463
1747908199569.937,114,37456
1747908199570.938,114,37454
1747908199571.937,114,37456
1747908199572.938,114,37448
1747908199573.937,114,37447
1747908199574.938,114,37456
1747908199575.937,115,37467
1747908199576.938,115,37479
1747908199577.9368,115,37481
1747908199578.938,115,37475
1747908199579.813,115,37459
1747908199580.812,115,37437
1747908199581.813,115,37423
1747908199582.812,115,37408
1747908199583.813,115,37395
1747908199584.812,115,37374
1747908199585.813,115,37353
1747908199586.812,116,37327
1747908199587.813,116,37309
1747908199588.812,116,37299
1747908199589.813,116,37308
1747908199590.812,116,37312
1747908199591.813,116,37321
1747908199592.812,116,37322
1747908199593.813,116,37321
1747908199594.812,116,37311
1747908199595.656,116,37288
1747908199596.656,116,37257
1747908199597.656,117,37218
1747908199598.656,117,37185
1747908199599.656,117,37160
1747908199600.656,117,37143
1747908199601.656,117,37126
1747908199602.656,117,37103
1747908199603.656,117,37094
1747908199604.656,117,37090
1747908199605.656,117,37093
1747908199606.656,117,37106
1747908199607.656,117,37116
1747908199608.656,118,37120
1747908199609.656,118,37115
1747908199610.656,118,37113
1747908199611.563,118,37113
1747908199612.562,118,37117
1747908199613.563,118,37114
1747908199614.562,118,37105
1747908199615.563,118,37085
1747908199616.562,118,37070
1747908199617.563,118,37066
1747908199618.562,118,37065
1747908199619.562,119,37069
1747908199620.563,119,37065
1747908199621.562,119,37043
1747908199622.563,119,37011
1747908199623.562,119,36979
1747908199624.563,119,36951
1747908199625.562,119,36932
1747908199626.563,119,36919
1747908199627.437,119,36908
1747908199628.438,119,36895
1747908199629.437,119,36880
1747908199630.438,120,36865
1747908199631.438,120,36861
1747908199632.437,120,36852
1747908199633.438,120,36833
1747908199634.437,120,36817
1747908199635.438,120,36801
1747908199636.437,120,36801
1747908199637.438,120,36803
1747908199638.437,120,36816
1747908199639.438,120,36825
1747908199640.4368,120,36824
1747908199641.438,121,36813
1747908199642.437,121,36803
1747908199643.344,121,36783
1747908199644.344,121,36757
1747908199645.344,121,36717
1747908199646.344,121,36671
1747908199647.344,121,36615
1747908199648.344,121,36559
1747908199649.344,121,36517
1747908199650.344,121,36498
1747908199651.344,121,36497
1747908199652.344,122,36517
1747908199653.344,122,36555
1747908199654.344,122,36598
1747908199655.344,122,36627
1747908199656.344,122,36644
1747908199657.344,122,36651
1747908199658.344,122,36656
1747908199659.219,122,36648
1747908199660.219,122,36625
1747908199661.219,122,36593
1747908199662.219,122,36565
1747908199663.219,123,36533
1747908199664.219,123,36500
1747908199665.219,123,36465
1747908199666.219,123,36435
1747908199667.219,123,36414
1747908199668.219,123,36397
1747908199669.219,123,36371
1747908199670.219,123,36361
1747908199671.219,123,36353
1747908199672.219,123,36332
1747908199673.219,123,36304
1747908199674.219,124,36274
1747908199675.094,124,36235
1747908199676.094,124,36203
1747908199677.094,124,36206
1747908199678.094,124,36239
1747908199679.094,124,36283
1747908199680.094,124,36328
1747908199681.094,124,36361
1747908199682.094,124,36381
1747908199683.094,124,36419
1747908199684.094,124,36458
1747908199685.0942,125,36476
1747908199686.094,125,36475
1747908199687.094,125,36464
1747908199688.094,125,36452
1747908199689.094,125,36440
1747908199690.094,125,36437
1747908199690.938,125,36431
1747908199691.937,125,36412
1747908199692.938,125,36394
1747908199693.938,125,36384
1747908199694.937,125,36369
1747908199695.938,126,36357
1747908199696.937,126,36342
1747908199697.938,126,36321
1747908199698.937,126,36315
1747908199699.938,126,36314
1747908199700.937,126,36320
1747908199701.938,126,36326
1747908199702.9368,126,36341
1747908199703.938,126,36352
1747908199704.937,126,36344
1747908199705.938,126,36332
1747908199706.844,127,36308
1747908199707.844,127,36277
1747908199708.844,127,36241
1747908199709.844,127,36219
1747908199710.844,127,36207
1747908199711.844,127,36200
1747908199712.844,127,36209
1747908199713.844,127,36227
1747908199714.844,127,36256
1747908199715.844,127,36288
1747908199716.844,127,36314
1747908199717.844,128,36341
1747908199718.844,128,36360
1747908199719.844,128,36373
1747908199720.844,128,36378
1747908199721.844,128,36365
1747908199722.719,128,36342
1747908199723.719,128,36306
1747908199724.719,128,36276
1747908199725.719,128,36248
1747908199726.719,128,36224
1747908199727.719,128,36220
1747908199728.719,129,36232
1747908199729.719,129,36272
1747908199730.719,129,36325
1747908199731.719,129,36373
1747908199732.719,129,36395
1747908199733.719,129,36377
1747908199734.719,129,36327
1747908199735.719,129,36241
1747908199736.719,129,36156
1747908199737.719,129,36071
1747908199738.625,129,35991
1747908199739.625,130,35923
1747908199740.625,130,35869
1747908199741.625,130,35833
1747908199742.625,130,35812
1747908199743.625,130,35827
1747908199744.625,130,35859
1747908199745.625,130,35879
1747908199746.625,130,35902
1747908199747.625,130,35925
1747908199748.625,130,35944
1747908199749.625,130,35961
1747908199750.625,131,35980
1747908199751.625,131,36008
1747908199752.625,131,36034
1747908199753.625,131,36052
1747908199754.5,131,36058
1747908199755.5,131,36048
1747908199756.5,131,36043
1747908199757.5,131,36035
1747908199758.5,131,36029
1747908199759.5,131,36030
1747908199760.5,131,36023
1747908199761.5,132,36017
1747908199762.5,132,36027
1747908199763.5,132,36046
1747908199764.5,132,36076
1747908199765.5,132,36092
1747908199766.5,132,36103
1747908199767.5,132,36113
1747908199768.5,132,36109
1747908199769.5,132,36113
1747908199770.344,132,36091
1747908199771.344,132,36062
1747908199772.344,133,36036
1747908199773.344,133,36007
1747908199774.344,133,35977
1747908199775.344,133,35958
1747908199776.344,133,35956
1747908199777.344,133,35971
1747908199778.344,133,35999
1747908199779.344,133,36038
1747908199780.344,133,36070
1747908199781.344,133,36082
1747908199782.344,133,36081
1747908199783.344,134,36060
1747908199784.344,134,36020
1747908199785.344,134,35972
1747908199786.25,134,35912
1747908199787.25,134,35860
1747908199788.25,134,35811
1747908199789.25,134,35776
1747908199790.25,134,35756
1747908199791.25,134,35751
1747908199792.25,134,35745
1747908199793.25,134,35754
1747908199794.25,135,35772
1747908199795.25,135,35797
1747908199796.25,135,35824
1747908199797.25,135,35844
1747908199798.25,135,35853
1747908199799.25,135,35851
1747908199800.25,135,35834
1747908199801.25,135,35824
1747908199802.125,135,35814
1747908199803.125,135,35795
1747908199804.125,135,35788
1747908199805.125,136,35780
1747908199806.125,136,35778
1747908199807.125,136,35771
1747908199808.125,136,35774
1747908199809.125,136,35793
1747908199810.125,136,35829
1747908199811.125,136,35876
1747908199812.125,136,35912
1747908199813.125,136,35941
1747908199814.125,136,35954
1747908199815.125,136,35962
1747908199816.125,137,35963
1747908199817.125,137,35956
1747908199818.0,137,35922
1747908199819.0,137,35886
1747908199820.0,137,35861
1747908199821.0,137,35840
1747908199822.0,137,35831
1747908199823.0,137,35812
1747908199824.0,137,35796
1747908199825.0,137,35794
1747908199826.0,137,35801
1747908199827.0,138,35811
1747908199828.0,138,35820
1747908199829.0,138,35803
1747908199830.0,138,35751
1747908199831.0,138,35689
1747908199832.0,138,35633
1747908199833.0,138,35583
1747908199833.875,138,35526
1747908199834.875,138,35474
1747908199835.875,138,35454
1747908199836.875,138,35453
1747908199837.875,139,35468
1747908199838.875,139,35494
1747908199839.875,139,35524
1747908199840.875,139,35560
1747908199841.875,139,35605
1747908199842.875,139,35641
1747908199843.875,139,35673
1747908199844.875,139,35699
1747908199845.875,139,35709
1747908199846.875,139,35721
1747908199847.875,139,35733
1747908199848.875,140,35739
1747908199849.75,140,35731
1747908199850.75,140,35709
1747908199851.75,140,35690
1747908199852.75,140,35667
1747908199853.75,140,35649
1747908199854.75,140,35646
1747908199855.75,140,35630
1747908199856.75,140,35620
1747908199857.75,140,35625
1747908199858.75,140,35642
1747908199859.75,141,35665
1747908199860.75,141,35689
1747908199861.75,141,35708
1747908199862.75,141,35721
1747908199863.75,141,35739
1747908199864.75,141,35752
1747908199865.625,141,35751
1747908199866.625,141,35737
1747908199867.625,141,35713
1747908199868.625,141,35687
1747908199869.625,141,35671
1747908199870.625,142,35666
1747908199871.625,142,35665
1747908199872.625,142,35667
1747908199873.625,142,35666
1747908199874.625,142,35662
1747908199875.625,142,35625
1747908199876.625,142,35568
1747908199877.625,142,35492
1747908199878.625,142,35415
1747908199879.625,142,35353
1747908199880.625,142,35311
1747908199881.5,143,35272
1747908199882.5,143,35235
1747908199883.5,143,35224
1747908199884.5,143,35241
1747908199885.5,143,35279
1747908199886.5,143,35320
1747908199887.5,143,35371
1747908199888.5,143,35417
1747908199889.5,143,35465
1747908199890.5,143,35507
1747908199891.5,143,35538
1747908199892.5,144,35568
1747908199893.5,144,35575
1747908199894.5,144,35577
1747908199895.5,144,35561
1747908199896.5,144,35531
1747908199897.406,144,35497
1747908199898.406,144,35455
1747908199899.406,144,35423
1747908199900.4058,144,35402
1747908199901.406,144,35393
1747908199902.406,144,35389
1747908199903.406,145,35388
1747908199904.406,145,35388
1747908199905.406,145,35399
1747908199906.406,145,35426
1747908199907.406,145,35457
1747908199908.406,145,35496
1747908199909.406,145,35527
1747908199910.406,145,35547
1747908199911.406,145,35560
1747908199912.406,145,35555
1747908199913.281,145,35533
1747908199914.281,146,35505
1747908199915.281,146,35467
1747908199916.281,146,35444
1747908199917.281,146,35413
1747908199918.281,146,35377
1747908199919.281,146,35341
1747908199920.281,146,35301
1747908199921.281,146,35269
1747908199922.281,146,35258
1747908199923.281,146,35253
1747908199924.2808,146,35264
1747908199925.281,147,35279
1747908199926.281,147,35301
1747908199927.281,147,35318
1747908199928.281,147,35337
1747908199929.156,147,35332
1747908199930.156,147,35307
1747908199931.156,147,35278
1747908199932.156,147,35241
1747908199933.156,147,35213
1747908199934.156,147,35185
1747908199935.156,147,35158
1747908199936.156,148,35127
1747908199937.156,148,35129
1747908199938.156,148,35148
1747908199939.156,148,35174
1747908199940.156,148,35197
1747908199941.156,148,35216
1747908199942.156,148,35233
1747908199943.156,148,35263
1747908199944.156,148,35291
1747908199945.031,148,35311
1747908199946.031,148,35324
1747908199947.031,149,35340
1747908199948.031,149,35359
1747908199949.031,149,35389
1747908199950.031,149,35419
1747908199951.031,149,35438
1747908199952.031,149,35452
1747908199953.031,149,35464
1747908199954.031,149,35467
1747908199955.031,149,35460
1747908199956.031,149,35444
1747908199957.031,149,35421
1747908199958.031,150,35398
1747908199959.031,150,35382
1747908199960.031,150,35376
1747908199960.938,150,35370
1747908199961.937,150,35355
1747908199962.938,150,35348
1747908199963.937,150,35343
1747908199964.938,150,35343
1747908199965.937,150,35343
1747908199966.938,150,35347
1747908199967.937,150,35362
1747908199968.9382,151,35374
1747908199969.937,151,35372
1747908199970.938,151,35363
1747908199971.937,151,35347
1747908199972.938,151,35315
1747908199973.937,151,35265
1747908199974.938,151,35206
1747908199975.937,151,35159
1747908199976.8118,151,35116
1747908199977.813,151,35081
1747908199978.812,151,35054
1747908199979.813,152,35047
1747908199980.812,152,35047
1747908199981.813,152,35061
1747908199982.812,152,35085
1747908199983.813,152,35114
1747908199984.812,152,35159
1747908199985.813,152,35200
1747908199986.812,152,35237
1747908199987.813,152,35270
1747908199988.812,152,35298
1747908199989.813,152,35311
1747908199990.813,153,35300
1747908199991.812,153,35286
1747908199992.688,153,35249
1747908199993.687,153,35213
1747908199994.688,153,35183
1747908199995.687,153,35155
1747908199996.688,153,35135
1747908199997.687,153,35139
1747908199998.688,153,35155
1747908199999.687,153,35183
1747908200000.688,153,35220
1747908200001.688,154,35253
1747908200002.687,154,35286
1747908200003.688,154,35315
1747908200004.687,154,35334
1747908200005.688,154,35348
1747908200006.687,154,35345
1747908200007.688,154,35316
1747908200008.531,154,35260
1747908200009.531,154,35190
1747908200010.531,154,35115
1747908200011.531,154,35041
1747908200012.531,155,34973
1747908200013.531,155,34920
1747908200014.531,155,34876
1747908200015.531,155,34849
1747908200016.531,155,34841
1747908200017.531,155,34855
1747908200018.531,155,34875
1747908200019.531,155,34888
1747908200020.531,155,34894
1747908200021.531,155,34894
1747908200022.531,155,34898
1747908200023.531,156,34911
1747908200024.437,156,34903
1747908200025.438,156,34892
1747908200026.437,156,34865
1747908200027.438,156,34846
1747908200028.437,156,34845
1747908200029.438,156,34839
1747908200030.437,156,34839
1747908200031.4382,156,34826
1747908200032.437,156,34825
1747908200033.438,156,34821
1747908200034.437,157,34829
1747908200035.438,157,34845
1747908200036.437,157,34866
1747908200037.438,157,34883
1747908200038.437,157,34891
1747908200039.438,157,34890
1747908200040.313,157,34880
1747908200041.312,157,34859
1747908200042.313,157,34847
1747908200043.312,157,34830
1747908200044.313,157,34819
1747908200045.312,158,34800
1747908200046.313,158,34769
1747908200047.312,158,34726
1747908200048.313,158,34691
1747908200049.312,158,34667
1747908200050.313,158,34647
1747908200051.312,158,34637
1747908200052.313,158,34635
1747908200053.313,158,34635
1747908200054.312,158,34636
1747908200055.313,158,34655
1747908200056.219,159,34660
1747908200057.219,159,34653
1747908200058.219,159,34651
1747908200059.219,159,34661
1747908200060.219,159,34662
1747908200061.219,159,34669
1747908200062.219,159,34667
1747908200063.219,159,34663
1747908200064.219,159,34659
1747908200065.219,159,34655
1747908200066.219,159,34643
1747908200067.219,160,34617
1747908200068.219,160,34591
1747908200069.219,160,34573
1747908200070.219,160,34557
1747908200071.219,160,34543
1747908200072.063,160,34523
1747908200073.062,160,34508
1747908200074.063,160,34489
1747908200075.063,160,34471
1747908200076.062,160,34461
1747908200077.063,160,34455
1747908200078.062,161,34455
1747908200079.063,161,34476
1747908200080.062,161,34514
1747908200081.063,161,34561
1747908200082.062,161,34604
1747908200083.063,161,34634
1747908200084.062,161,34661
1747908200085.063,161,34676
1747908200086.062,161,34680
1747908200087.063,161,34681
1747908200087.938,161,34668
1747908200088.937,162,34645
1747908200089.938,162,34619
1747908200090.937,162,34610
1747908200091.938,162,34620
1747908200092.937,162,34649
1747908200093.9382,162,34683
1747908200094.937,162,34719
1747908200095.938,162,34757
1747908200096.937,162,34807
1747908200097.938,162,34842
1747908200098.937,162,34880
1747908200099.938,163,34923
1747908200100.937,163,34966
1747908200101.938,163,35011
1747908200102.937,163,35059
1747908200103.812,163,35100
1747908200104.813,163,35141
1747908200105.812,163,35181
1747908200106.813,163,35240
1747908200107.812,163,35293
1747908200108.813,163,35352
1747908200109.812,163,35407
1747908200110.813,164,35470
1747908200111.812,164,35520
1747908200112.813,164,35555
1747908200113.812,164,35556
1747908200114.813,164,35518
1747908200115.813,164,35438
1747908200116.812,164,35346
1747908200117.813,164,35247
1747908200118.812,164,35157
1747908200119.688,164,35072
1747908200120.687,164,34984
1747908200121.688,165,34903
1747908200122.687,165,34821
1747908200123.688,165,34732
1747908200124.687,165,34658
1747908200125.688,165,34586
1747908200126.688,165,34515
1747908200127.687,165,34452
1747908200128.688,165,34392
1747908200129.687,165,34338
1747908200130.688,165,34289
1747908200131.687,165,34245
1747908200132.688,166,34199
1747908200133.687,166,34160
1747908200134.688,166,34127
1747908200135.594,166,34091
1747908200136.594,166,34060
1747908200137.594,166,34039
1747908200138.594,166,34012
1747908200139.594,166,33965
1747908200140.594,166,33909
1747908200141.594,166,33860
1747908200142.594,166,33819
1747908200143.594,167,33797
1747908200144.594,167,33795
1747908200145.594,167,33806
1747908200146.594,167,33832
1747908200147.594,167,33861
1747908200148.594,167,33897
1747908200149.594,167,33935
1747908200150.594,167,33979
1747908200151.469,167,34003
1747908200152.469,167,34017
1747908200153.469,167,34027
1747908200154.469,168,34037
1747908200155.469,168,34048
1747908200156.469,168,34062
1747908200157.469,168,34074
1747908200158.469,168,34083
1747908200159.469,168,34085
1747908200160.469,168,34075
1747908200161.469,168,34061
1747908200162.469,168,34047
1747908200163.469,168,34041
1747908200164.469,168,34035
1747908200165.469,169,34040
1747908200166.469,169,34039
1747908200167.344,169,34024
1747908200168.344,169,34010
1747908200169.344,169,34000
1747908200170.344,169,33988
1747908200171.344,169,33988
1747908200172.344,169,33992
1747908200173.344,169,34002
1747908200174.344,169,34018
1747908200175.344,169,34037
1747908200176.344,170,34063
1747908200177.344,170,34097
1747908200178.344,170,34127
1747908200179.344,170,34156
1747908200180.344,170,34175
1747908200181.344,170,34179
1747908200182.344,170,34169
1747908200183.219,170,34143
1747908200184.219,170,34098
1747908200185.219,170,34060
1747908200186.219,170,34016
1747908200187.219,171,33993
1747908200188.219,171,33979
1747908200189.219,171,33978
1747908200190.219,171,33994
1747908200191.219,171,34026
1747908200192.219,171,34061
1747908200193.219,171,34095
1747908200194.219,171,34126
1747908200195.219,171,34146
1747908200196.219,171,34152
1747908200197.219,171,34139
1747908200198.219,172,34118
1747908200199.094,172,34095
1747908200200.094,172,34057
1747908200201.094,172,34028
1747908200202.094,172,34001
1747908200203.094,172,33980
1747908200204.094,172,33973
1747908200205.094,172,33978
1747908200206.094,172,33999
1747908200207.094,172,34029
1747908200208.094,172,34060
1747908200209.094,173,34088
1747908200210.094,173,34104
1747908200211.094,173,34105
1747908200212.094,173,34100
1747908200213.094,173,34104
1747908200214.094,173,34119
1747908200215.0,173,34128
1747908200216.0,173,34118
1747908200217.0,173,34101
1747908200218.0,173,34065
1747908200219.0,173,34024
1747908200220.0,174,33980
1747908200221.0,174,33941
1747908200222.0,174,33921
1747908200223.0,174,33919
1747908200224.0,174,33923
1747908200225.0,174,33942
1747908200226.0,174,33960
1747908200227.0,174,33983
1747908200228.0,174,33998
1747908200229.0,174,34021
1747908200230.0,174,34042
1747908200230.875,175,34065
1747908200231.875,175,34077
1747908200232.875,175,34086
1747908200233.875,175,34090
1747908200234.875,175,34086
1747908200235.875,175,34073
1747908200236.875,175,34052
1747908200237.875,175,34044
1747908200238.875,175,34048
1747908200239.875,175,34050
1747908200240.875,175,34058
1747908200241.875,176,34056
1747908200242.875,176,34060
1747908200243.875,176,34072
1747908200244.875,176,34090
1747908200245.875,176,34108
1747908200246.719,176,34106
1747908200247.719,176,34098
1747908200248.719,176,34088
1747908200249.719,176,34085
1747908200250.719,176,34083
1747908200251.719,176,34082
1747908200252.719,177,34074
1747908200253.719,177,34055
1747908200254.719,177,34054
1747908200255.719,177,34060
1747908200256.719,177,34052
1747908200257.719,177,34049
1747908200258.719,177,34048
1747908200259.719,177,34060
1747908200260.719,177,34075
1747908200261.719,177,34077
1747908200262.594,177,34073
1747908200263.594,178,34046
1747908200264.594,178,34032
1747908200265.594,178,34020
1747908200266.594,178,34013
1747908200267.594,178,34017
1747908200268.594,178,34024
1747908200269.594,178,34045
1747908200270.594,178,34069
1747908200271.594,178,34107
1747908200272.594,178,34137
1747908200273.594,178,34150
1747908200274.594,179,34180
1747908200275.594,179,34198
1747908200276.594,179,34209
1747908200277.594,179,34204
1747908200278.5,179,34187
1747908200279.5,179,34151
1747908200280.5,179,34110
1747908200281.5,179,34077
1747908200282.5,179,34060
1747908200283.5,179,34063
1747908200284.5,179,34064
1747908200285.5,180,34067
1747908200286.5,180,34083
1747908200287.5,180,34109
1747908200288.5,180,34133
1747908200289.5,180,34149
1747908200290.5,180,34161
1747908200291.5,180,34161
1747908200292.5,180,34164
1747908200293.5,180,34161
1747908200294.406,180,34160
1747908200295.406,180,34144
1747908200296.406,181,34131
1747908200297.406,181,34127
1747908200298.406,181,34121
1747908200299.406,181,34118
1747908200300.406,181,34111
1747908200301.406,181,34078
1747908200302.406,181,34041
1747908200303.406,181,34014
1747908200304.406,181,34010
1747908200305.406,181,34031
1747908200306.406,181,34067
1747908200307.406,182,34117
1747908200308.406,182,34168
1747908200309.406,182,34212
1747908200310.281,182,34219
1747908200311.281,182,34217
1747908200312.281,182,34208
1747908200313.281,182,34195
1747908200314.281,182,34174
1747908200315.281,182,34152
1747908200316.281,182,34135
1747908200317.281,182,34120
1747908200318.281,183,34120
1747908200319.281,183,34122
1747908200320.281,183,34145
1747908200321.281,183,34183
1747908200322.2808,183,34209
1747908200323.281,183,34219
1747908200324.281,183,34226
1747908200325.281,183,34242
1747908200326.156,183,34235
1747908200327.156,183,34221
1747908200328.156,183,34181
1747908200329.156,184,34128
1747908200330.156,184,34084
1747908200331.156,184,34041
1747908200332.156,184,34005
1747908200333.156,184,33982
1747908200334.156,184,33979
1747908200335.156,184,33989
1747908200336.156,184,33989
1747908200337.156,184,33988
1747908200338.156,184,34000
1747908200339.156,184,34019
1747908200340.156,185,34031
1747908200341.156,185,34039
1747908200342.031,185,34030
1747908200343.031,185,34006
1747908200344.031,185,33978
1747908200345.031,185,33937
1747908200346.031,185,33893
1747908200347.031,185,33862
1747908200348.031,185,33823
1747908200349.031,185,33786
1747908200350.031,185,33771
1747908200351.031,186,33776
1747908200352.031,186,33779
1747908200353.031,186,33785
1747908200354.031,186,33787
1747908200355.031,186,33787
1747908200356.031,186,33782
1747908200357.031,186,33784
1747908200357.906,186,33776
1747908200358.906,186,33757
1747908200359.906,186,33742
1747908200360.906,186,33724
1747908200361.906,187,33717
1747908200362.906,187,33713
1747908200363.906,187,33725
1747908200364.906,187,33736
1747908200365.906,187,33752
1747908200366.906,187,33760
1747908200367.906,187,33755
1747908200368.906,187,33753
1747908200369.906,187,33743
1747908200370.906,187,33725
1747908200371.906,187,33695
1747908200372.906,188,33655
1747908200373.813,188,33588
1747908200374.8118,188,33519
1747908200375.813,188,33468
1747908200376.812,188,33443
1747908200377.813,188,33436
1747908200378.812,188,33442
1747908200379.813,188,33452
1747908200380.812,188,33467
1747908200381.813,188,33495
1747908200382.812,188,33521
1747908200383.812,189,33532
1747908200384.813,189,33531
1747908200385.812,189,33513
1747908200386.813,189,33499
1747908200387.812,189,33502
1747908200388.813,189,33510
1747908200389.687,189,33507
1747908200390.688,189,33480
1747908200391.687,189,33451
1747908200392.688,189,33427
1747908200393.687,189,33410
1747908200394.687,190,33407
1747908200395.688,190,33427
1747908200396.687,190,33452
1747908200397.688,190,33496
1747908200398.6868,190,33552
1747908200399.688,190,33604
1747908200400.687,190,33644
1747908200401.688,190,33664
1747908200402.687,190,33665
1747908200403.688,190,33653
1747908200404.687,190,33619
1747908200405.562,191,33559
1747908200406.563,191,33489
1747908200407.562,191,33423
1747908200408.563,191,33367
1747908200409.562,191,33327
1747908200410.563,191,33301
1747908200411.562,191,33301
1747908200412.563,191,33315
1747908200413.562,191,33343
1747908200414.563,191,33378
1747908200415.562,191,33402
1747908200416.563,192,33430
1747908200417.562,192,33457
1747908200418.563,192,33478
1747908200419.562,192,33501
1747908200420.563,192,33513
1747908200421.438,192,33507
1747908200422.437,192,33482
1747908200423.438,192,33438
1747908200424.437,192,33385
1747908200425.438,192,33334
1747908200426.437,192,33289
1747908200427.438,193,33262
1747908200428.437,193,33251
1747908200429.4382,193,33261
1747908200430.437,193,33285
1747908200431.438,193,33314
1747908200432.437,193,33353
1747908200433.438,193,33379
1747908200434.438,193,33402
1747908200435.437,193,33415
1747908200436.438,193,33427
1747908200437.344,193,33435
1747908200438.344,194,33434
1747908200439.344,194,33452
1747908200440.344,194,33473
1747908200441.344,194,33488
1747908200442.344,194,33483
1747908200443.3442,194,33473
1747908200444.344,194,33468
1747908200445.344,194,33478
1747908200446.344,194,33483
1747908200447.344,194,33477
1747908200448.344,194,33467
1747908200449.344,195,33445
1747908200450.344,195,33425
1747908200451.344,195,33400
1747908200452.344,195,33369
1747908200453.25,195,33332
1747908200454.25,195,33304
1747908200455.25,195,33290
1747908200456.25,195,33301
1747908200457.25,195,33319
1747908200458.25,195,33359
1747908200459.25,195,33413
1747908200460.25,196,33470
1747908200461.25,196,33543
1747908200462.25,196,33603
1747908200463.25,196,33665
1747908200464.25,196,33714
1747908200465.25,196,33744
1747908200466.25,196,33729
1747908200467.25,196,33659
1747908200468.25,196,33558
1747908200469.125,196,33440
1747908200470.125,196,33327
1747908200471.125,197,33236
1747908200472.125,197,33163
1747908200473.125,197,33105
1747908200474.125,197,33067
1747908200475.125,197,33046
1747908200476.125,197,33036
1747908200477.125,197,33062
1747908200478.125,197,33104
1747908200479.125,197,33139
1747908200480.125,197,33165
1747908200481.125,197,33182
1747908200482.125,198,33183
1747908200483.125,198,33181
1747908200484.125,198,33167
1747908200485.0,198,33146
1747908200486.0,198,33116
1747908200487.0,198,33092
1747908200488.0,198,33074
1747908200489.0,198,33056
1747908200490.0,198,33055
1747908200491.0,198,33055
1747908200492.0,198,33062
1747908200493.0,199,33070
1747908200494.0,199,33073
1747908200495.0,199,33070
1747908200496.0,199,33064
1747908200497.0,199,33051
1747908200498.0,199,33032
1747908200499.0,199,33002
1747908200500.0,199,32980
1747908200500.906,199,32963
1747908200501.906,199,32942
1747908200502.906,199,32934
1747908200503.906,200,32925
1747908200504.906,200,32922
1747908200505.906,200,32915
1747908200506.906,200,32917
1747908200507.906,200,32931
1747908200508.906,200,32965
1747908200509.906,200,33007
1747908200510.906,200,33053
1747908200511.906,200,33089
1747908200512.906,200,33115
1747908200513.906,200,33131
1747908200514.906,201,33137
1747908200515.906,201,33128
1747908200516.812,201,33101
1747908200517.813,201,33042
1747908200518.812,201,32959
1747908200519.813,201,32859
1747908200520.812,201,32771
1747908200521.813,201,32690
1747908200522.812,201,32631
1747908200523.813,201,32598
1747908200524.812,201,32586
1747908200525.812,202,32585
1747908200526.813,202,32599
1747908200527.812,202,32624
1747908200528.813,202,32657
1747908200529.812,202,32688
1747908200530.813,202,32717
1747908200531.812,202,32745
1747908200532.719,202,32772
1747908200533.719,202,32807
1747908200534.719,202,32837
1747908200535.719,202,32849
1747908200536.719,203,32851
1747908200537.719,203,32837
1747908200538.719,203,32822
1747908200539.719,203,32813
1747908200540.719,203,32800
1747908200541.719,203,32792
1747908200542.719,203,32790
1747908200543.719,203,32775
1747908200544.719,203,32777
1747908200545.719,203,32779
1747908200546.719,203,32798
1747908200547.719,204,32819
1747908200548.563,204,32821
1747908200549.562,204,32811
1747908200550.563,204,32789
1747908200551.562,204,32763
1747908200552.563,204,32731
1747908200553.562,204,32697
1747908200554.563,204,32659
1747908200555.562,204,32625
1747908200556.563,204,32605
1747908200557.562,204,32603
1747908200558.563,205,32615
1747908200559.562,205,32617
1747908200560.563,205,32617
1747908200561.562,205,32611
1747908200562.563,205,32607
1747908200563.562,205,32598
1747908200564.469,205,32582
1747908200565.469,205,32576
1747908200566.469,205,32575
1747908200567.469,205,32579
1747908200568.469,205,32592
1747908200569.469,206,32605
1747908200570.469,206,32615
1747908200571.469,206,32633
1747908200572.469,206,32663
1747908200573.469,206,32709
1747908200574.469,206,32735
1747908200575.469,206,32754
1747908200576.469,206,32755
1747908200577.469,206,32751
1747908200578.469,206,32741
1747908200579.469,206,32702
1747908200580.344,207,32642
1747908200581.344,207,32581
1747908200582.344,207,32523
1747908200583.344,207,32477
1747908200584.344,207,32444
1747908200585.344,207,32416
1747908200586.344,207,32401
1747908200587.344,207,32402
1747908200588.344,207,32421
1747908200589.344,207,32458
1747908200590.344,207,32500
1747908200591.3442,208,32537
1747908200592.344,208,32563
1747908200593.344,208,32595
1747908200594.344,208,32620
1747908200595.344,208,32638
1747908200596.344,208,32643
1747908200597.344,208,32652
1747908200598.344,208,32653
1747908200599.344,208,32651
1747908200600.344,208,32647
1747908200601.344,208,32637
1747908200602.344,209,32645
1747908200603.344,209,32670
1747908200604.344,209,32716
1747908200605.344,209,32764
1747908200606.344,209,32803
1747908200607.344,209,32824
1747908200608.344,209,32832
1747908200609.344,209,32818
1747908200610.344,209,32800
1747908200611.344,209,32770
1747908200612.156,209,32732
1747908200613.156,210,32689
1747908200614.156,210,32650
1747908200615.156,210,32618
1747908200616.156,210,32580
1747908200617.156,210,32547
1747908200618.156,210,32522
1747908200619.1558,210,32509
1747908200620.156,210,32513
1747908200621.156,210,32531
1747908200622.156,210,32562
1747908200623.156,210,32595
1747908200624.156,211,32618
1747908200625.156,211,32642
1747908200626.156,211,32654
1747908200627.156,211,32671
1747908200628.031,211,32682
1747908200629.031,211,32676
1747908200630.031,211,32670
1747908200631.031,211,32650
1747908200632.031,211,32622
1747908200633.031,211,32603
1747908200634.031,211,32599
1747908200635.031,212,32617
1747908200636.031,212,32652
1747908200637.031,212,32682
1747908200638.031,212,32707
1747908200639.031,212,32727
1747908200640.031,212,32749
1747908200641.031,212,32781
1747908200642.031,212,32814
1747908200643.0308,212,32850
1747908200643.906,212,32854
1747908200644.906,212,32847
1747908200645.906,213,32835
1747908200646.906,213,32823
1747908200647.906,213,32816
1747908200648.906,213,32819
1747908200649.906,213,32825
1747908200650.906,213,32815
1747908200651.906,213,32804
1747908200652.906,213,32789
1747908200653.906,213,32777
1747908200654.906,213,32780
1747908200655.906,213,32797
1747908200656.906,214,32819
1747908200657.906,214,32836
1747908200658.906,214,32852
1747908200659.844,214,32863
1747908200660.844,214,32874
1747908200661.844,214,32891
1747908200662.844,214,32896
1747908200663.844,214,32893
1747908200664.844,214,32892
1747908200665.844,214,32895
1747908200666.844,214,32902
1747908200667.844,215,32907
1747908200668.844,215,32916
1747908200669.844,215,32915
1747908200670.844,215,32910
1747908200671.844,215,32905
1747908200672.844,215,32897
1747908200673.844,215,32888
1747908200674.844,215,32878
1747908200675.719,215,32861
1747908200676.719,215,32829
1747908200677.7192,215,32821
1747908200678.719,216,32821
1747908200679.719,216,32835
1747908200680.719,216,32847
1747908200681.719,216,32869
1747908200682.719,216,32885
1747908200683.719,216,32903
1747908200684.719,216,32916
1747908200685.719,216,32919
1747908200686.719,216,32922
1747908200687.719,216,32921
1747908200688.719,216,32908
1747908200689.719,217,32893
1747908200690.719,217,32869
1747908200691.625,217,32831
1747908200692.625,217,32795
1747908200693.625,217,32781
1747908200694.625,217,32769
1747908200695.625,217,32762
1747908200696.625,217,32757
1747908200697.625,217,32752
1747908200698.625,217,32748
1747908200699.625,217,32754
1747908200700.625,218,32768
1747908200701.625,218,32798
1747908200702.625,218,32830
1747908200703.625,218,32855
1747908200704.625,218,32870
1747908200705.625,218,32880
1747908200706.625,218,32871
1747908200707.5,218,32848
1747908200708.5,218,32813
1747908200709.5,218,32782
1747908200710.5,218,32757
1747908200711.5,219,32735
1747908200712.5,219,32715
1747908200713.5,219,32715
1747908200714.5,219,32720
1747908200715.5,219,32735
1747908200716.5,219,32761
1747908200717.5,219,32775
1747908200718.5,219,32780
1747908200719.5,219,32768
1747908200720.5,219,32743
1747908200721.5,219,32722
1747908200722.5,220,32699
1747908200723.406,220,32674
1747908200724.406,220,32654
1747908200725.406,220,32629
1747908200726.406,220,32612
1747908200727.406,220,32599
1747908200728.406,220,32586
1747908200729.406,220,32586
1747908200730.406,220,32595
1747908200731.406,220,32609
1747908200732.406,220,32630
1747908200733.406,221,32654
1747908200734.406,221,32682
1747908200735.406,221,32705
1747908200736.406,221,32707
1747908200737.406,221,32708
1747908200738.406,221,32702
1747908200739.281,221,32685
1747908200740.281,221,32661
1747908200741.281,221,32632
1747908200742.281,221,32591
1747908200743.281,221,32552
1747908200744.281,222,32516
1747908200745.281,222,32492
1747908200746.281,222,32487
1747908200747.281,222,32492
1747908200748.281,222,32515
1747908200749.281,222,32545
1747908200750.281,222,32573
1747908200751.281,222,32595
1747908200752.281,222,32606
1747908200753.281,222,32619
1747908200754.281,222,32628
1747908200755.187,223,32636
1747908200756.188,223,32627
1747908200757.187,223,32609
1747908200758.188,223,32589
1747908200759.187,223,32572
1747908200760.187,223,32562
1747908200761.188,223,32571
1747908200762.187,223,32588
1747908200763.188,223,32624
1747908200764.187,223,32663
1747908200765.188,223,32695
1747908200766.187,224,32719
1747908200767.188,224,32720
1747908200768.187,224,32714
1747908200769.188,224,32704
1747908200770.187,224,32700
1747908200771.063,224,32674
1747908200772.063,224,32633
1747908200773.062,224,32588
1747908200774.063,224,32551
1747908200775.062,224,32527
1747908200776.063,224,32511
1747908200777.062,225,32517
1747908200778.063,225,32539
1747908200779.062,225,32569
1747908200780.063,225,32617
1747908200781.0618,225,32681
1747908200782.063,225,32755
1747908200783.062,225,32822
1747908200784.063,225,32872
1747908200785.062,225,32917
1747908200786.063,225,32958
1747908200786.938,225,32983
1747908200787.937,226,33013
1747908200788.938,226,33041
1747908200789.937,226,33086
1747908200790.938,226,33131
1747908200791.937,226,33179
1747908200792.938,226,33227
1747908200793.937,226,33267
1747908200794.938,226,33306
1747908200795.937,226,33340
1747908200796.938,226,33375
1747908200797.937,226,33407
1747908200798.938,227,33426
1747908200799.937,227,33432
1747908200800.937,227,33419
1747908200801.938,227,33385
1747908200802.844,227,33318
1747908200803.844,227,33227
1747908200804.844,227,33139
1747908200805.844,227,33057
1747908200806.844,227,32989
1747908200807.844,227,32937
1747908200808.844,227,32895
1747908200809.844,228,32850
1747908200810.844,228,32808
1747908200811.844,228,32771
1747908200812.844,228,32732
1747908200813.844,228,32693
1747908200814.844,228,32646
1747908200815.844,228,32581
1747908200816.844,228,32513
1747908200817.844,228,32434
1747908200818.75,228,32351
1747908200819.75,228,32256
1747908200820.75,229,32153
1747908200821.75,229,32054
1747908200822.75,229,31955
1747908200823.75,229,31866
1747908200824.75,229,31797
1747908200825.75,229,31747
1747908200826.75,229,31732
1747908200827.75,229,31731
1747908200828.75,229,31752
1747908200829.75,229,31795
1747908200830.75,229,31847
1747908200831.75,230,31902
1747908200832.75,230,31961
1747908200833.75,230,32012
1747908200834.656,230,32046
1747908200835.656,230,32060
1747908200836.656,230,32072
1747908200837.656,230,32078
1747908200838.656,230,32074
1747908200839.656,230,32059
1747908200840.656,230,32041
1747908200841.656,230,32032
1747908200842.656,231,32033
1747908200843.656,231,32047
1747908200844.656,231,32060
1747908200845.656,231,32077
1747908200846.656,231,32087
1747908200847.656,231,32097
1747908200848.656,231,32102
1747908200849.656,231,32111
1747908200850.531,231,32105
1747908200851.531,231,32088
1747908200852.531,231,32074
1747908200853.5308,232,32068
1747908200854.531,232,32062
1747908200855.531,232,32054
1747908200856.531,232,32047
1747908200857.531,232,32046
1747908200858.531,232,32047
1747908200859.531,232,32042
1747908200860.531,232,32037
1747908200861.531,232,32022
1747908200862.531,232,32000
1747908200863.531,232,31974
1747908200864.531,233,31949
1747908200865.531,233,31929
1747908200866.438,233,31912
1747908200867.4368,233,31896
1747908200868.438,233,31905
1747908200869.437,233,31920
1747908200870.438,233,31940
1747908200871.437,233,31959
1747908200872.438,233,31982
1747908200873.437,233,31993
1747908200874.438,233,32004
1747908200875.437,234,32028
1747908200876.438,234,32048
1747908200877.437,234,32062
1747908200878.438,234,32066
1747908200879.437,234,32084
1747908200880.438,234,32086
1747908200881.438,234,32084
1747908200882.312,234,32066
1747908200883.313,234,32044
1747908200884.312,234,32024
1747908200885.313,234,32013
1747908200886.312,235,32008
1747908200887.313,235,31999
1747908200888.312,235,32000
1747908200889.313,235,32000
1747908200890.312,235,32019
1747908200891.313,235,32046
1747908200892.313,235,32077
1747908200893.312,235,32092
1747908200894.313,235,32083
1747908200895.312,235,32063
1747908200896.313,235,32027
1747908200897.312,236,31992
1747908200898.219,236,31954
1747908200899.219,236,31906
1747908200900.219,236,31873
1747908200901.219,236,31848
1747908200902.219,236,31845
1747908200903.219,236,31851
1747908200904.219,236,31874
1747908200905.219,236,31914
1747908200906.219,236,31965
1747908200907.219,236,32011
1747908200908.219,237,32058
1747908200909.219,237,32100
1747908200910.219,237,32135
1747908200911.219,237,32166
1747908200912.219,237,32188
1747908200913.219,237,32197
1747908200914.125,237,32189
1747908200915.125,237,32156
1747908200916.125,237,32108
1747908200917.125,237,32061
1747908200918.125,237,32009
1747908200919.125,238,31969
1747908200920.125,238,31933
1747908200921.125,238,31910
1747908200922.125,238,31904
1747908200923.125,238,31908
1747908200924.125,238,31921
1747908200925.125,238,31939
1747908200926.125,238,31970
1747908200927.125,238,32004
1747908200928.125,238,32044
1747908200929.125,238,32082
1747908200930.031,239,32098
1747908200931.031,239,32095
1747908200932.031,239,32076
1747908200933.031,239,32062
1747908200934.031,239,32043
1747908200935.031,239,32027
1747908200936.031,239,32009
1747908200937.031,239,31974
1747908200938.031,239,31950
1747908200939.031,239,31938
1747908200940.031,239,31936
1747908200941.031,240,31937
1747908200942.031,240,31953
1747908200943.031,240,31964
1747908200944.031,240,32000
1747908200945.031,240,32035
1747908200945.906,240,32068
1747908200946.906,240,32092
1747908200947.906,240,32106
1747908200948.906,240,32123
1747908200949.906,240,32148
1747908200950.906,240,32176
1747908200951.906,241,32204
1747908200952.906,241,32225
1747908200953.906,241,32242
1747908200954.906,241,32238
1747908200955.906,241,32215
1747908200956.906,241,32197
1747908200957.906,241,32178
1747908200958.906,241,32169
1747908200959.906,241,32158
1747908200960.906,241,32145
1747908200961.781,241,32133
1747908200962.781,242,32118
1747908200963.781,242,32114
1747908200964.781,242,32120
1747908200965.781,242,32128
1747908200966.781,242,32131
1747908200967.781,242,32134
1747908200968.781,242,32135
1747908200969.781,242,32139
1747908200970.781,242,32149
1747908200971.781,242,32164
1747908200972.781,242,32179
1747908200973.781,243,32198
1747908200974.781,243,32215
1747908200975.781,243,32236
1747908200976.781,243,32247
1747908200977.688,243,32248
1747908200978.687,243,32237
1747908200979.688,243,32234
1747908200980.687,243,32231
1747908200981.688,243,32233
1747908200982.687,243,32235
1747908200983.687,243,32239
1747908200984.688,244,32245
1747908200985.687,244,32260
1747908200986.688,244,32282
1747908200987.687,244,32302
1747908200988.688,244,32321
1747908200989.687,244,32339
1747908200990.688,244,32348
1747908200991.687,244,32353
1747908200992.688,244,32352
1747908200993.562,244,32341
1747908200994.562,244,32312
1747908200995.563,245,32280
1747908200996.562,245,32261
1747908200997.563,245,32246
1747908200998.562,245,32254
1747908200999.563,245,32276
1747908201000.562,245,32315
1747908201001.563,245,32358
1747908201002.562,245,32395
1747908201003.563,245,32421
1747908201004.562,245,32437
1747908201005.563,245,32440
1747908201006.562,246,32435
1747908201007.5632,246,32420
1747908201008.562,246,32404
1747908201009.469,246,32380
1747908201010.469,246,32359
1747908201011.469,246,32318
1747908201012.469,246,32282
1747908201013.469,246,32246
1747908201014.469,246,32218
1747908201015.469,246,32198
1747908201016.469,246,32186
1747908201017.469,247,32188
1747908201018.469,247,32201
1747908201019.469,247,32237
1747908201020.469,247,32266
1747908201021.4692,247,32293
1747908201022.469,247,32318
1747908201023.469,247,32334
1747908201024.469,247,32344
1747908201025.344,247,32335
1747908201026.344,247,32313
1747908201027.344,247,32288
1747908201028.344,248,32264
1747908201029.344,248,32236
1747908201030.344,248,32214
1747908201031.344,248,32199
1747908201032.344,248,32186
1747908201033.344,248,32186
1747908201034.344,248,32190
1747908201035.344,248,32195
1747908201036.344,248,32205
1747908201037.344,248,32220
1747908201038.344,248,32242
1747908201039.344,249,32264
1747908201040.344,249,32275
1747908201041.25,249,32267
1747908201042.25,249,32254
1747908201043.25,249,32241
1747908201044.25,249,32238
1747908201045.25,249,32235
1747908201046.25,249,32233
1747908201047.25,249,32218
1747908201048.25,249,32189
1747908201049.25,249,32172
1747908201050.25,250,32167
1747908201051.25,250,32170
1747908201052.25,250,32179
1747908201053.25,250,32184
1747908201054.25,250,32178
1747908201055.25,250,32186
1747908201056.25,250,32202
1747908201057.125,250,32221
1747908201058.125,250,32232
1747908201059.125,250,32243
1747908201060.125,250,32245
1747908201061.125,251,32232
1747908201062.125,251,32220
1747908201063.125,251,32216
1747908201064.125,251,32200
1747908201065.125,251,32182
1747908201066.125,251,32157
1747908201067.125,251,32125
1747908201068.125,251,32099
1747908201069.125,251,32072
1747908201070.125,251,32050
1747908201071.125,251,32034
1747908201072.125,252,32026
1747908201073.031,252,32003
1747908201074.031,252,31986
1747908201075.031,252,32005
1747908201076.031,252,32062
1747908201077.031,252,32116
1747908201078.031,252,32168
1747908201079.031,252,32202
1747908201080.031,252,32225
1747908201081.031,252,32240
1747908201082.031,252,32246
1747908201083.031,253,32254
1747908201084.031,253,32240
1747908201085.031,253,32210
1747908201086.031,253,32170
1747908201087.031,253,32135
1747908201088.031,253,32107
1747908201088.937,253,32086
1747908201089.938,253,32070
1747908201090.937,253,32072
1747908201091.938,253,32084
1747908201092.937,253,32103
1747908201093.9382,254,32128
1747908201094.937,254,32150
1747908201095.938,254,32173
1747908201096.937,254,32200
1747908201097.938,254,32237
1747908201098.937,254,32252
1747908201099.938,254,32269
1747908201100.937,254,32274
1747908201101.938,254,32268
1747908201102.937,254,32263
1747908201103.937,254,32243
1747908201104.781,255,32222
1747908201105.781,255,32188
1747908201106.781,255,32162
1747908201107.781,255,32134
1747908201108.781,255,32106
1747908201109.781,255,32086
1747908201110.781,255,32080
1747908201111.7808,255,32077
1747908201112.781,255,32088
1747908201113.781,255,32117
1747908201114.781,255,32150
1747908201115.781,256,32185
1747908201116.781,256,32212
1747908201117.781,256,32227
1747908201118.781,256,32230
1747908201119.781,256,32244
1747908201120.687,256,32233
1747908201121.688,256,32216
1747908201122.687,256,32197
1747908201123.688,256,32171
1747908201124.687,256,32155
1747908201125.688,256,32149
1747908201126.688,257,32148
1747908201127.687,257,32163
1747908201128.688,257,32189
1747908201129.687,257,32228
1747908201130.688,257,32282
1747908201131.687,257,32338
1747908201132.688,257,32392
1747908201133.687,257,32429
1747908201134.688,257,32453
1747908201135.687,257,32460
1747908201136.594,257,32450
1747908201137.594,258,32435
1747908201138.594,258,32419
1747908201139.594,258,32405
1747908201140.594,258,32384
1747908201141.594,258,32354
1747908201142.594,258,32316
1747908201143.594,258,32268
1747908201144.594,258,32246
1747908201145.594,258,32224
1747908201146.594,258,32210
1747908201147.594,258,32207
1747908201148.594,259,32203
1747908201149.594,259,32207
1747908201150.594,259,32214
1747908201151.594,259,32223
1747908201152.5,259,32230
1747908201153.5,259,32234
1747908201154.5,259,32238
1747908201155.5,259,32245
1747908201156.5,259,32250
1747908201157.5,259,32260
1747908201158.5,259,32272
1747908201159.5,260,32290
1747908201160.5,260,32329
1747908201161.5,260,32367
1747908201162.5,260,32393
1747908201163.5,260,32412
1747908201164.5,260,32426
1747908201165.5,260,32434
1747908201166.5,260,32443
1747908201167.5,260,32450
1747908201168.375,260,32429
1747908201169.375,260,32403
1747908201170.375,261,32371
1747908201171.375,261,32355
1747908201172.375,261,32350
1747908201173.375,261,32340
1747908201174.375,261,32335
1747908201175.375,261,32339
1747908201176.375,261,32347
1747908201177.375,261,32367
1747908201178.375,261,32392
1747908201179.375,261,32422
1747908201180.375,261,32443
1747908201181.375,262,32457
1747908201182.375,262,32475
1747908201183.375,262,32491
1747908201184.219,262,32498
1747908201185.219,262,32497
1747908201186.219,262,32491
1747908201187.219,262,32480
1747908201188.219,262,32467
1747908201189.219,262,32456
1747908201190.219,262,32448
1747908201191.219,262,32438
1747908201192.219,263,32436
1747908201193.219,263,32447
1747908201194.219,263,32469
1747908201195.219,263,32489
1747908201196.219,263,32507
1747908201197.219,263,32526
1747908201198.219,263,32542
1747908201199.219,263,32547
1747908201200.125,263,32532
1747908201201.125,263,32507
1747908201202.125,263,32479
1747908201203.125,264,32455
1747908201204.125,264,32425
1747908201205.125,264,32409
1747908201206.125,264,32400
1747908201207.125,264,32391
1747908201208.125,264,32398
1747908201209.125,264,32409
1747908201210.125,264,32431
1747908201211.125,264,32454
1747908201212.125,264,32476
1747908201213.125,264,32500
1747908201214.125,265,32531
1747908201215.125,265,32560
1747908201216.0,265,32574
1747908201217.0,265,32587
1747908201218.0,265,32596
1747908201219.0,265,32622
1747908201220.0,265,32673
1747908201221.0,265,32715
1747908201222.0,265,32739
1747908201223.0,265,32757
1747908201224.0,265,32758
1747908201225.0,266,32755
1747908201226.0,266,32721
1747908201227.0,266,32672
1747908201228.0,266,32610
1747908201229.0,266,32546
1747908201230.0,266,32495
1747908201231.0,266,32454
1747908201231.875,266,32423
1747908201232.875,266,32398
1747908201233.875,266,32394
1747908201234.875,266,32400
1747908201235.875,267,32406
1747908201236.875,267,32409
1747908201237.875,267,32416
1747908201238.875,267,32431
1747908201239.875,267,32447
1747908201240.875,267,32478
1747908201241.875,267,32507
1747908201242.875,267,32529
1747908201243.875,267,32540
1747908201244.875,267,32563
1747908201245.875,267,32578
1747908201246.875,268,32604
1747908201247.781,268,32621
1747908201248.781,268,32622
1747908201249.781,268,32625
1747908201250.781,268,32619
1747908201251.781,268,32612
1747908201252.781,268,32605
1747908201253.781,268,32599
1747908201254.781,268,32591
1747908201255.781,268,32583
1747908201256.781,268,32585
1747908201257.781,269,32585
1747908201258.781,269,32585
1747908201259.7808,269,32590
1747908201260.781,269,32595
1747908201261.781,269,32607
1747908201262.781,269,32615
1747908201263.688,269,32612
1747908201264.687,269,32600
1747908201265.688,269,32589
1747908201266.687,269,32582
1747908201267.688,269,32587
1747908201268.687,270,32595
1747908201269.687,270,32592
1747908201270.688,270,32585
1747908201271.687,270,32588
1747908201272.688,270,32609
1747908201273.6868,270,32626
1747908201274.688,270,32640
1747908201275.687,270,32649
1747908201276.688,270,32665
1747908201277.687,270,32677
1747908201278.688,270,32702
1747908201279.531,271,32711
1747908201280.531,271,32704
1747908201281.531,271,32688
1747908201282.531,271,32670
1747908201283.531,271,32642
1747908201284.531,271,32622
1747908201285.531,271,32605
1747908201286.531,271,32599
1747908201287.531,271,32602
1747908201288.531,271,32607
1747908201289.531,271,32621
1747908201290.531,272,32643
1747908201291.531,272,32664
1747908201292.531,272,32683
1747908201293.531,272,32698
1747908201294.531,272,32693
1747908201295.406,272,32673
1747908201296.406,272,32649
1747908201297.406,272,32625
1747908201298.406,272,32603
1747908201299.406,272,32592
1747908201300.406,272,32581
1747908201301.406,273,32588
1747908201302.406,273,32606
1747908201303.406,273,32645
1747908201304.406,273,32685
1747908201305.406,273,32715
1747908201306.406,273,32733
1747908201307.406,273,32730
1747908201308.406,273,32719
1747908201309.406,273,32705
1747908201310.406,273,32682
1747908201311.281,273,32655
1747908201312.281,274,32610
1747908201313.281,274,32569
1747908201314.281,274,32532
1747908201315.281,274,32508
1747908201316.281,274,32501
1747908201317.281,274,32507
1747908201318.281,274,32527
1747908201319.281,274,32551
1747908201320.281,274,32575
1747908201321.281,274,32602
1747908201322.2808,274,32631
1747908201323.281,275,32655
1747908201324.281,275,32682
1747908201325.281,275,32701
1747908201326.281,275,32717
1747908201327.187,275,32720
1747908201328.188,275,32711
1747908201329.187,275,32702
1747908201330.188,275,32704
1747908201331.187,275,32695
1747908201332.187,275,32683
1747908201333.188,275,32678
1747908201334.187,276,32674
1747908201335.188,276,32677
1747908201336.1868,276,32679
1747908201337.188,276,32689
1747908201338.187,276,32714
1747908201339.188,276,32736
1747908201340.187,276,32753
1747908201341.188,276,32759
1747908201342.187,276,32771
1747908201343.031,276,32769
1747908201344.031,276,32765
1747908201345.031,277,32755
1747908201346.031,277,32741
1747908201347.031,277,32729
1747908201348.031,277,32719
1747908201349.031,277,32706
1747908201350.031,277,32690
1747908201351.031,277,32693
1747908201352.031,277,32703
1747908201353.031,277,32715
1747908201354.031,277,32718
1747908201355.031,277,32726
1747908201356.031,278,32724
1747908201357.031,278,32716
1747908201358.031,278,32716
1747908201358.938,278,32713
1747908201359.937,278,32704
1747908201360.938,278,32688
1747908201361.937,278,32678
1747908201362.938,278,32682
1747908201363.937,278,32682
1747908201364.938,278,32686
1747908201365.937,278,32695
1747908201366.9382,279,32712
1747908201367.937,279,32747
1747908201368.938,279,32773
1747908201369.937,279,32792
1747908201370.938,279,32801
1747908201371.938,279,32806
1747908201372.937,279,32810
1747908201373.938,279,32803
1747908201374.8118,279,32777
1747908201375.813,279,32742
1747908201376.812,279,32720
1747908201377.813,280,32697
1747908201378.812,280,32684
1747908201379.813,280,32674
1747908201380.812,280,32667
1747908201381.813,280,32654
1747908201382.812,280,32643
1747908201383.812,280,32642
1747908201384.813,280,32636
1747908201385.812,280,32627
1747908201386.813,280,32613
1747908201387.812,280,32585
1747908201388.813,281,32561
1747908201389.812,281,32550
1747908201390.688,281,32543
1747908201391.687,281,32533
1747908201392.688,281,32527
1747908201393.687,281,32522
1747908201394.687,281,32505
1747908201395.688,281,32494
1747908201396.687,281,32479
1747908201397.688,281,32479
1747908201398.6868,281,32481
1747908201399.688,282,32498
1747908201400.687,282,32521
1747908201401.688,282,32535
1747908201402.687,282,32553
1747908201403.688,282,32569
1747908201404.687,282,32581
1747908201405.688,282,32593
1747908201406.594,282,32585
1747908201407.594,282,32567
1747908201408.594,282,32554
1747908201409.594,282,32552
1747908201410.594,283,32549
1747908201411.594,283,32559
1747908201412.594,283,32562
1747908201413.594,283,32566
1747908201414.594,283,32584
1747908201415.594,283,32612
1747908201416.594,283,32639
1747908201417.594,283,32663
1747908201418.594,283,32682
1747908201419.594,283,32685
1747908201420.594,283,32677
1747908201421.594,284,32663
1747908201422.437,284,32628
1747908201423.438,284,32585
1747908201424.437,284,32533
1747908201425.438,284,32501
1747908201426.437,284,32481
1747908201427.438,284,32477
1747908201428.437,284,32486
1747908201429.4382,284,32504
1747908201430.437,284,32536
1747908201431.438,284,32569
1747908201432.437,285,32608
1747908201433.438,285,32634
1747908201434.438,285,32647
1747908201435.437,285,32667
1747908201436.438,285,32679
1747908201437.437,285,32691
1747908201438.313,285,32683
1747908201439.312,285,32667
1747908201440.313,285,32644
1747908201441.312,285,32612
1747908201442.313,285,32584
1747908201443.312,286,32555
1747908201444.313,286,32529
1747908201445.312,286,32518
1747908201446.312,286,32529
1747908201447.313,286,32551
1747908201448.312,286,32575
1747908201449.313,286,32603
1747908201450.312,286,32615
1747908201451.313,286,32625
1747908201452.312,286,32637
1747908201453.3132,286,32638
1747908201454.187,287,32635
1747908201455.188,287,32631
1747908201456.187,287,32637
1747908201457.187,287,32642
1747908201458.188,287,32647
1747908201459.187,287,32646
1747908201460.188,287,32642
1747908201461.1868,287,32643
1747908201462.188,287,32659
1747908201463.187,287,32680
1747908201464.188,287,32710
1747908201465.187,288,32749
1747908201466.188,288,32803
1747908201467.187,288,32861
1747908201468.188,288,32925
1747908201469.187,288,32980
1747908201470.094,288,33025
1747908201471.094,288,33080
1747908201472.094,288,33122
1747908201473.094,288,33164
1747908201474.094,288,33207
1747908201475.094,288,33259
1747908201476.094,289,33300
1747908201477.094,289,33336
1747908201478.094,289,33372
1747908201479.094,289,33414
1747908201480.094,289,33445
1747908201481.094,289,33473
1747908201482.094,289,33498
1747908201483.094,289,33508
1747908201484.094,289,33506
1747908201485.094,289,33499
1747908201485.969,289,33479
1747908201486.969,290,33433
1747908201487.969,290,33372
1747908201488.969,290,33299
1747908201489.969,290,33230
1747908201490.969,290,33171
1747908201491.969,290,33125
1747908201492.969,290,33093
1747908201493.969,290,33069
1747908201494.969,290,33045
1747908201495.969,290,33016
1747908201496.969,290,32979
1747908201497.969,291,32928
1747908201498.969,291,32869
1747908201499.969,291,32797
1747908201500.969,291,32727
1747908201501.844,291,32648
1747908201502.844,291,32553
1747908201503.844,291,32459
1747908201504.844,291,32383
1747908201505.8442,291,32327
1747908201506.844,291,32290
1747908201507.844,291,32269
1747908201508.844,292,32268
1747908201509.844,292,32290
1747908201510.844,292,32328
1747908201511.844,292,32362
1747908201512.844,292,32388
1747908201513.844,292,32402
1747908201514.844,292,32377
1747908201515.844,292,32336
1747908201516.844,292,32282
1747908201517.719,292,32219
1747908201518.719,292,32173
1747908201519.719,293,32141
1747908201520.719,293,32117
1747908201521.719,293,32101
1747908201522.719,293,32102
1747908201523.719,293,32112
1747908201524.719,293,32125
1747908201525.719,293,32149
1747908201526.719,293,32180
1747908201527.719,293,32207
1747908201528.719,293,32243
1747908201529.719,293,32271
1747908201530.719,294,32297
1747908201531.719,294,32312
1747908201532.719,294,32323
1747908201533.6558,294,32320
1747908201534.656,294,32305
1747908201535.656,294,32302
1747908201536.656,294,32300
1747908201537.656,294,32309
1747908201538.656,294,32329
1747908201539.656,294,32341
1747908201540.656,294,32365
1747908201541.656,295,32401
1747908201542.656,295,32448
1747908201543.656,295,32488
1747908201544.656,295,32511
1747908201545.656,295,32519
1747908201546.656,295,32509
1747908201547.656,295,32491
1747908201548.656,295,32455
1747908201549.5,295,32425
1747908201550.5,295,32377
1747908201551.5,295,32320
1747908201552.5,296,32260
1747908201553.5,296,32220
1747908201554.5,296,32194
1747908201555.5,296,32189
1747908201556.5,296,32182
1747908201557.5,296,32190
1747908201558.5,296,32194
1747908201559.5,296,32202
1747908201560.5,296,32221
1747908201561.5,296,32238
1747908201562.5,296,32263
1747908201563.5,297,32288
1747908201564.5,297,32315
1747908201565.406,297,32320
1747908201566.406,297,32333
1747908201567.406,297,32343
1747908201568.406,297,32351
1747908201569.406,297,32350
1747908201570.406,297,32343
1747908201571.406,297,32338
1747908201572.406,297,32344
1747908201573.406,297,32358
1747908201574.406,298,32382
1747908201575.406,298,32402
1747908201576.406,298,32430
1747908201577.406,298,32437
1747908201578.406,298,32433
1747908201579.406,298,32421
1747908201580.406,298,32402
1747908201581.281,298,32366
1747908201582.281,298,32316
1747908201583.281,298,32275
1747908201584.281,298,32239
1747908201585.281,299,32230
1747908201586.281,299,32253
1747908201587.281,299,32282
1747908201588.281,299,32314
1747908201589.281,299,32357
1747908201590.281,299,32396
1747908201591.281,299,32427
1747908201592.281,299,32438
1747908201593.281,299,32438
1747908201594.281,299,32428
1747908201595.281,299,32410
1747908201596.281,300,32400
1747908201597.156,300,32386
1747908201598.156,300,32367
1747908201599.156,300,32342
1747908201600.156,300,32310
1747908201601.156,300,32279
1747908201602.156,300,32260
1747908201603.156,300,32252
1747908201604.156,300,32243
1747908201605.156,300,32250
1747908201606.156,300,32268
1747908201607.156,301,32293
1747908201608.156,301,32322
1747908201609.156,301,32348
1747908201610.156,301,32384
1747908201611.156,301,32410
1747908201612.156,301,32430
1747908201613.031,301,32432
1747908201614.031,301,32415
1747908201615.031,301,32380
1747908201616.031,301,32329
1747908201617.031,301,32282
1747908201618.031,302,32257
1747908201619.031,302,32260
1747908201620.031,302,32267
1747908201621.031,302,32284
1747908201622.031,302,32302
1747908201623.031,302,32317
1747908201624.031,302,32340
1747908201625.031,302,32371
1747908201626.031,302,32401
1747908201627.031,302,32431
1747908201628.031,302,32454
1747908201628.937,303,32466
1747908201629.938,303,32465
1747908201630.937,303,32459
1747908201631.938,303,32461
1747908201632.937,303,32472
1747908201633.938,303,32477
1747908201634.937,303,32473
1747908201635.938,303,32471
1747908201636.937,303,32482
1747908201637.938,303,32505
1747908201638.937,303,32538
1747908201639.937,304,32574
1747908201640.938,304,32596
1747908201641.937,304,32604
1747908201642.938,304,32600
1747908201643.937,304,32592
1747908201644.813,304,32569
1747908201645.812,304,32529
1747908201646.813,304,32508
1747908201647.812,304,32481
1747908201648.813,304,32458
1747908201649.812,304,32431
1747908201650.812,305,32413
1747908201651.813,305,32410
1747908201652.812,305,32415
1747908201653.813,305,32425
1747908201654.812,305,32432
1747908201655.813,305,32448
1747908201656.812,305,32459
1747908201657.813,305,32470
1747908201658.812,305,32487
1747908201659.813,305,32508
1747908201660.687,305,32521
1747908201661.688,306,32521
1747908201662.688,306,32524
1747908201663.687,306,32525
1747908201664.688,306,32538
1747908201665.687,306,32536
1747908201666.688,306,32536
1747908201667.687,306,32525
1747908201668.688,306,32523
1747908201669.687,306,32541
1747908201670.688,306,32567
1747908201671.6868,306,32590
1747908201672.688,307,32607
1747908201673.687,307,32609
1747908201674.688,307,32593
1747908201675.687,307,32562
1747908201676.562,307,32516
1747908201677.563,307,32472
1747908201678.562,307,32425
1747908201679.563,307,32400
1747908201680.562,307,32380
1747908201681.563,307,32377
1747908201682.562,307,32384
1747908201683.563,308,32395
1747908201684.562,308,32429
1747908201685.563,308,32472
1747908201686.562,308,32521
1747908201687.563,308,32557
1747908201688.562,308,32582
1747908201689.563,308,32586
1747908201690.562,308,32577
1747908201691.562,308,32547
1747908201692.438,308,32505
1747908201693.437,308,32466
1747908201694.438,309,32428
1747908201695.437,309,32410
1747908201696.438,309,32404
1747908201697.437,309,32401
1747908201698.438,309,32385
1747908201699.437,309,32380
1747908201700.438,309,32385
1747908201701.437,309,32403
1747908201702.437,309,32433
1747908201703.438,309,32459
1747908201704.437,309,32486
1747908201705.438,310,32501
1747908201706.437,310,32513
1747908201707.438,310,32513
1747908201708.344,310,32501
1747908201709.344,310,32478
1747908201710.344,310,32442
1747908201711.344,310,32409
1747908201712.344,310,32387
1747908201713.344,310,32373
1747908201714.344,310,32367
1747908201715.344,310,32372
1747908201716.3442,311,32388
1747908201717.344,311,32407
1747908201718.344,311,32410
1747908201719.344,311,32425
1747908201720.344,311,32434
1747908201721.344,311,32443
1747908201722.344,311,32440
1747908201723.344,311,32435
1747908201724.219,311,32413
1747908201725.219,311,32392
1747908201726.219,311,32380
1747908201727.219,312,32351
1747908201728.219,312,32323
1747908201729.219,312,32285
1747908201730.219,312,32250
1747908201731.219,312,32224
1747908201732.219,312,32211
1747908201733.219,312,32218
1747908201734.219,312,32222
1747908201735.219,312,32242
1747908201736.219,312,32263
1747908201737.219,312,32270
1747908201738.219,313,32285
1747908201739.219,313,32297
1747908201740.125,313,32292
1747908201741.125,313,32274
1747908201742.125,313,32251
1747908201743.125,313,32228
1747908201744.125,313,32197
1747908201745.125,313,32178
1747908201746.125,313,32160
1747908201747.125,313,32141
1747908201748.125,313,32126
1747908201749.125,314,32112
1747908201750.125,314,32106
1747908201751.125,314,32106
1747908201752.125,314,32119
1747908201753.125,314,32130
1747908201754.125,314,32155
1747908201755.125,314,32176
1747908201755.969,314,32178
1747908201756.969,314,32181
1747908201757.969,314,32186
1747908201758.969,314,32193
1747908201759.969,315,32204
1747908201760.969,315,32200
1747908201761.969,315,32191
1747908201762.969,315,32190
1747908201763.969,315,32192
1747908201764.969,315,32212
1747908201765.969,315,32224
1747908201766.969,315,32230
1747908201767.969,315,32226
1747908201768.969,315,32210
1747908201769.969,315,32189
1747908201770.969,316,32162
1747908201771.875,316,32136
1747908201772.875,316,32106
1747908201773.875,316,32087
1747908201774.875,316,32068
1747908201775.875,316,32068
1747908201776.875,316,32069
1747908201777.875,316,32074
1747908201778.875,316,32070
1747908201779.875,316,32074
1747908201780.875,316,32083
1747908201781.875,317,32094
1747908201782.875,317,32113
1747908201783.875,317,32134
1747908201784.875,317,32143
1747908201785.875,317,32144
1747908201786.875,317,32142
1747908201787.75,317,32126
1747908201788.75,317,32110
1747908201789.75,317,32088
1747908201790.75,317,32070
1747908201791.75,317,32058
1747908201792.75,318,32050
1747908201793.75,318,32057
1747908201794.75,318,32060
1747908201795.75,318,32090
1747908201796.75,318,32133
1747908201797.75,318,32174
1747908201798.75,318,32214
1747908201799.75,318,32238
1747908201800.75,318,32244
1747908201801.75,318,32236
1747908201802.75,318,32222
1747908201803.656,319,32196
1747908201804.656,319,32163
1747908201805.656,319,32125
1747908201806.6558,319,32086
1747908201807.656,319,32048
1747908201808.656,319,32011
1747908201809.656,319,31984
1747908201810.656,319,31982
1747908201811.656,319,32004
1747908201812.656,319,32048
1747908201813.656,319,32098
1747908201814.656,320,32145
1747908201815.656,320,32173
1747908201816.656,320,32187
1747908201817.656,320,32186
1747908201818.656,320,32167
1747908201819.5,320,32140
1747908201820.5,320,32086
1747908201821.5,320,32021
1747908201822.5,320,31974
1747908201823.5,320,31940
1747908201824.5,320,31920
1747908201825.5,321,31914
1747908201826.5,321,31918
1747908201827.5,321,31942
1747908201828.5,321,31980
1747908201829.5,321,32017
1747908201830.5,321,32056
1747908201831.5,321,32098
1747908201832.5,321,32140
1747908201833.5,321,32190
1747908201834.5,321,32218
1747908201835.375,321,32230
1747908201836.375,322,32217
1747908201837.375,322,32201
1747908201838.375,322,32182
1747908201839.375,322,32174
1747908201840.375,322,32164
1747908201841.375,322,32158
1747908201842.375,322,32160
1747908201843.375,322,32182
1747908201844.375,322,32210
1747908201845.375,322,32232
1747908201846.375,322,32242
1747908201847.375,323,32237
1747908201848.375,323,32213
1747908201849.375,323,32185
1747908201850.375,323,32147
1747908201851.281,323,32103
1747908201852.281,323,32067
1747908201853.281,323,32050
1747908201854.281,323,32045
1747908201855.281,323,32045
1747908201856.281,323,32050
1747908201857.281,323,32054
1747908201858.281,324,32062
1747908201859.281,324,32080
1747908201860.281,324,32106
1747908201861.281,324,32124
1747908201862.281,324,32141
1747908201863.281,324,32151
1747908201864.281,324,32166
1747908201865.281,324,32185
1747908201866.281,324,32198
1747908201867.156,324,32194
1747908201868.156,324,32189
1747908201869.1558,325,32177
1747908201870.156,325,32166
1747908201871.156,325,32156
1747908201872.156,325,32154
1747908201873.156,325,32164
1747908201874.156,325,32179
1747908201875.156,325,32201
1747908201876.156,325,32228
1747908201877.156,325,32253
1747908201878.156,325,32253
1747908201879.156,325,32232
1747908201880.156,326,32205
1747908201881.156,326,32172
1747908201882.156,326,32148
1747908201883.031,326,32133
1747908201884.031,326,32116
1747908201885.031,326,32102
1747908201886.031,326,32091
1747908201887.031,326,32081
1747908201888.031,326,32078
1747908201889.031,326,32086
1747908201890.031,326,32102
1747908201891.031,327,32121
1747908201892.031,327,32140
1747908201893.0308,327,32147
1747908201894.031,327,32140
1747908201895.031,327,32132
1747908201896.031,327,32116
1747908201897.031,327,32104
1747908201898.031,327,32087
1747908201898.938,327,32061
1747908201899.937,327,32031
1747908201900.938,327,32012
1747908201901.937,328,32016
1747908201902.938,328,32029
1747908201903.937,328,32047
1747908201904.938,328,32065
1747908201905.937,328,32086
1747908201906.938,328,32111
1747908201907.938,328,32144
1747908201908.937,328,32182
1747908201909.938,328,32222
1747908201910.937,328,32262
1747908201911.938,328,32285
1747908201912.937,329,32304
1747908201913.938,329,32314
1747908201914.812,329,32316
1747908201915.813,329,32318
1747908201916.812,329,32313
1747908201917.813,329,32306
1747908201918.813,329,32290
1747908201919.812,329,32268
1747908201920.813,329,32239
1747908201921.812,329,32219
1747908201922.813,329,32202
1747908201923.812,330,32184
1747908201924.813,330,32155
1747908201925.812,330,32114
1747908201926.813,330,32088
1747908201927.812,330,32077
1747908201928.813,330,32072
1747908201929.812,330,32071
1747908201930.687,330,32072
1747908201931.688,330,32067
1747908201932.687,330,32067
1747908201933.688,330,32071
1747908201934.687,331,32074
1747908201935.688,331,32076
1747908201936.687,331,32061
1747908201937.6882,331,32048
1747908201938.687,331,32051
1747908201939.688,331,32068
1747908201940.687,331,32088
1747908201941.688,331,32101
1747908201942.687,331,32116
1747908201943.688,331,32134
1747908201944.687,331,32147
1747908201945.688,332,32161
1747908201946.594,332,32169
1747908201947.594,332,32160
1747908201948.594,332,32150
1747908201949.594,332,32128
1747908201950.594,332,32113
1747908201951.594,332,32101
1747908201952.594,332,32108
1747908201953.594,332,32116
1747908201954.594,332,32142
1747908201955.594,332,32172
1747908201956.594,333,32189
1747908201957.594,333,32202
1747908201958.594,333,32205
1747908201959.594,333,32200
1747908201960.594,333,32197
1747908201961.594,333,32188
1747908201962.469,333,32172
1747908201963.469,333,32145
1747908201964.469,333,32118
1747908201965.469,333,32100
1747908201966.469,333,32092
1747908201967.469,334,32094
1747908201968.469,334,32092
1747908201969.469,334,32094
1747908201970.469,334,32102
1747908201971.469,334,32104
1747908201972.469,334,32106
1747908201973.469,334,32099
1747908201974.469,334,32084
1747908201975.469,334,32074
1747908201976.469,334,32084
1747908201977.469,334,32108
1747908201978.344,335,32125
1747908201979.344,335,32134
1747908201980.344,335,32134
1747908201981.344,335,32112
1747908201982.344,335,32084
1747908201983.344,335,32051
1747908201984.344,335,32027
1747908201985.344,335,32015
1747908201986.344,335,32019
1747908201987.344,335,32034
1747908201988.344,335,32048
1747908201989.344,336,32061
1747908201990.344,336,32063
1747908201991.344,336,32069
1747908201992.344,336,32077
1747908201993.344,336,32066
1747908201994.219,336,32040
1747908201995.219,336,32017
1747908201996.219,336,31987
1747908201997.219,336,31965
1747908201998.219,336,31956
1747908201999.219,336,31949
1747908202000.219,337,31956
1747908202001.219,337,31983
1747908202002.219,337,32023
1747908202003.219,337,32082
1747908202004.219,337,32136
1747908202005.219,337,32180
1747908202006.219,337,32207
1747908202007.219,337,32221
1747908202008.219,337,32231
1747908202009.219,337,32239
1747908202010.094,337,32235
1747908202011.094,338,32227
1747908202012.094,338,32221
1747908202013.094,338,32216
1747908202014.094,338,32208
1747908202015.094,338,32196
1747908202016.094,338,32187
1747908202017.094,338,32178
1747908202018.094,338,32180
1747908202019.094,338,32191
1747908202020.094,338,32202
1747908202021.094,338,32217
1747908202022.094,339,32241
1747908202023.094,339,32256
1747908202024.094,339,32271
1747908202025.094,339,32279
1747908202026.0,339,32261
1747908202027.0,339,32218
1747908202028.0,339,32158
1747908202029.0,339,32098
1747908202030.0,339,32061
1747908202031.0,339,32033
1747908202032.0,339,32024
1747908202033.0,340,32030
1747908202034.0,340,32052
1747908202035.0,340,32077
1747908202036.0,340,32104
1747908202037.0,340,32136
1747908202038.0,340,32153
1747908202039.0,340,32160
1747908202040.0,340,32166
1747908202041.0,340,32178
1747908202041.875,340,32179
1747908202042.875,340,32182
1747908202043.875,341,32185
1747908202044.875,341,32194
1747908202045.875,341,32206
1747908202046.875,341,32226
1747908202047.875,341,32247
1747908202048.875,341,32253
1747908202049.875,341,32248
1747908202050.875,341,32235
1747908202051.875,341,32232
1747908202052.875,341,32232
1747908202053.875,341,32226
1747908202054.875,342,32223
1747908202055.875,342,32216
1747908202056.875,342,32218
1747908202057.781,342,32219
1747908202058.781,342,32208
1747908202059.781,342,32217
1747908202060.781,342,32216
1747908202061.781,342,32204
1747908202062.781,342,32186
1747908202063.781,342,32165
1747908202064.781,342,32134
1747908202065.781,343,32108
1747908202066.781,343,32093
1747908202067.781,343,32075
1747908202068.781,343,32056
1747908202069.781,343,32029
1747908202070.781,343,32019
1747908202071.781,343,32028
1747908202072.781,343,32044
1747908202073.656,343,32055
1747908202074.656,343,32052
1747908202075.656,343,32054
1747908202076.656,344,32054
1747908202077.656,344,32059
1747908202078.656,344,32060
1747908202079.656,344,32066
1747908202080.656,344,32074
1747908202081.656,344,32084
1747908202082.656,344,32101
1747908202083.656,344,32110
1747908202084.656,344,32111
1747908202085.656,344,32110
1747908202086.656,344,32112
1747908202087.656,345,32110
1747908202088.656,345,32107
1747908202089.531,345,32084
1747908202090.531,345,32066
1747908202091.531,345,32054
1747908202092.531,345,32039
1747908202093.531,345,32031
1747908202094.531,345,32014
1747908202095.531,345,32006
1747908202096.531,345,32009
1747908202097.531,345,32037
1747908202098.531,346,32070
1747908202099.531,346,32098
1747908202100.531,346,32118
1747908202101.531,346,32124
1747908202102.531,346,32132
1747908202103.5308,346,32148
1747908202104.531,346,32169
1747908202105.406,346,32181
1747908202106.406,346,32183
1747908202107.406,346,32182
1747908202108.406,346,32188
1747908202109.406,347,32190
1747908202110.406,347,32192
1747908202111.406,347,32176
1747908202112.406,347,32155
1747908202113.406,347,32142
1747908202114.406,347,32122
1747908202115.406,347,32108
1747908202116.406,347,32094
1747908202117.406,347,32089
1747908202118.406,347,32074
1747908202119.406,347,32066
1747908202120.406,348,32057
1747908202121.312,348,32040
1747908202122.313,348,32028
1747908202123.312,348,32012
1747908202124.312,348,32003
1747908202125.313,348,31996
1747908202126.312,348,31988
1747908202127.313,348,31996
1747908202128.312,348,32010
1747908202129.313,348,32042
1747908202130.312,348,32078
1747908202131.313,349,32106
1747908202132.312,349,32143
1747908202133.313,349,32172
1747908202134.312,349,32200
1747908202135.313,349,32227
1747908202136.312,349,32251
1747908202137.187,349,32267
1747908202138.188,349,32284
1747908202139.187,349,32306
1747908202140.188,349,32330
1747908202141.187,349,32350
1747908202142.188,350,32368
1747908202143.187,350,32392
1747908202144.188,350,32415
1747908202145.187,350,32445
1747908202146.188,350,32479
1747908202147.187,350,32525
1747908202148.1882,350,32576
1747908202149.187,350,32615
1747908202150.188,350,32650
1747908202151.187,350,32687
1747908202152.188,350,32720
1747908202153.063,351,32766
1747908202154.062,351,32814
1747908202155.063,351,32863
1747908202156.0618,351,32909
1747908202157.063,351,32958
1747908202158.062,351,32999
1747908202159.063,351,33025
1747908202160.062,351,33047
1747908202161.063,351,33071
1747908202162.062,351,33115
1747908202163.063,351,33152
1747908202164.062,352,33176
1747908202165.062,352,33174
1747908202166.063,352,33151
1747908202167.062,352,33115
1747908202168.063,352,33055
1747908202168.937,352,32990
1747908202169.938,352,32921
1747908202170.937,352,32854
1747908202171.938,352,32783
1747908202172.937,352,32719
1747908202173.938,352,32651
1747908202174.937,353,32590
1747908202175.937,353,32537
1747908202176.938,353,32489
1747908202177.937,353,32449
1747908202178.938,353,32412
1747908202179.9368,353,32377
1747908202180.938,353,32332
1747908202181.937,353,32284
1747908202182.938,353,32221
1747908202183.937,353,32141
1747908202184.813,353,32057
1747908202185.812,354,31953
1747908202186.812,354,31888
1747908202187.813,354,31827
1747908202188.812,354,31786
1747908202189.813,354,31758
1747908202190.812,354,31747
1747908202191.813,354,31754
1747908202192.812,354,31781
1747908202193.813,354,31808
1747908202194.812,354,31837
1747908202195.813,354,31856
1747908202196.812,355,31874
1747908202197.813,355,31893
1747908202198.812,355,31904
1747908202199.813,355,31925
1747908202200.812,355,31935
1747908202201.813,355,31948
1747908202202.812,355,31959
1747908202203.813,355,31968
1747908202204.813,355,31984
1747908202205.812,355,32006
1747908202206.813,355,32040
1747908202207.812,356,32068
1747908202208.813,356,32101
1747908202209.812,356,32133
1747908202210.813,356,32166
1747908202211.812,356,32182
1747908202212.813,356,32185
1747908202213.812,356,32177
1747908202214.813,356,32175
1747908202215.812,356,32169
1747908202216.594,356,32163
1747908202217.594,356,32134
1747908202218.594,357,32099
1747908202219.594,357,32066
1747908202220.594,357,32036
1747908202221.594,357,32013
1747908202222.594,357,31997
1747908202223.594,357,31995
1747908202224.5942,357,32008
1747908202225.594,357,32034
1747908202226.594,357,32053
1747908202227.594,357,32071
1747908202228.594,357,32085
1747908202229.594,358,32098
1747908202230.594,358,32112
1747908202231.594,358,32114
1747908202232.469,358,32103
1747908202233.469,358,32094
1747908202234.469,358,32084
1747908202235.469,358,32079
1747908202236.469,358,32083
1747908202237.469,358,32085
1747908202238.469,358,32090
1747908202239.469,358,32102
1747908202240.469,359,32135
1747908202241.469,359,32180
1747908202242.469,359,32209
1747908202243.469,359,32239
1747908202244.469,359,32254
1747908202245.469,359,32259
1747908202246.469,359,32245
1747908202247.469,359,32231
1747908202248.375,359,32200
1747908202249.375,359,32160
1747908202250.375,359,32130
1747908202251.375,360,32117
1747908202252.375,360,32121
1747908202253.375,360,32142
1747908202254.375,360,32148
1747908202255.375,360,32159
1747908202256.375,360,32179
1747908202257.375,360,32202
1747908202258.375,360,32201
1747908202259.375,360,32190
1747908202260.375,360,32179
1747908202261.375,360,32177
1747908202262.375,361,32182
1747908202263.375,361,32182
1747908202264.25,361,32179
1747908202265.25,361,32174
1747908202266.25,361,32162
1747908202267.25,361,32164
1747908202268.25,361,32175
1747908202269.25,361,32199
1747908202270.25,361,32224
1747908202271.25,361,32244
1747908202272.25,361,32260
1747908202273.25,362,32280
1747908202274.25,362,32293
1747908202275.25,362,32297
1747908202276.25,362,32288
1747908202277.25,362,32266
1747908202278.25,362,32243
1747908202279.25,362,32214
1747908202280.156,362,32172
1747908202281.156,362,32128
1747908202282.156,362,32095
1747908202283.156,362,32078
1747908202284.156,363,32082
1747908202285.156,363,32093
1747908202286.156,363,32122
1747908202287.156,363,32146
1747908202288.156,363,32172
1747908202289.156,363,32194
1747908202290.156,363,32212
1747908202291.156,363,32232
1747908202292.156,363,32246
1747908202293.156,363,32256
1747908202294.156,363,32259
1747908202295.156,364,32250
1747908202296.031,364,32232
1747908202297.031,364,32208
1747908202298.031,364,32191
1747908202299.031,364,32178
1747908202300.031,364,32180
1747908202301.031,364,32186
1747908202302.031,364,32196
1747908202303.031,364,32212
1747908202304.031,364,32248
1747908202305.031,364,32283
1747908202306.031,365,32309
1747908202307.031,365,32316
1747908202308.031,365,32308
1747908202309.031,365,32282
1747908202310.031,365,32256
1747908202311.031,365,32237
1747908202311.906,365,32218
1747908202312.906,365,32205
1747908202313.906,365,32210
1747908202314.9058,365,32226
1747908202315.906,365,32238
1747908202316.906,366,32240
1747908202317.906,366,32243
1747908202318.906,366,32247
1747908202319.906,366,32253
1747908202320.906,366,32270
1747908202321.906,366,32296
1747908202322.906,366,32316
1747908202323.906,366,32338
1747908202324.906,366,32368
1747908202325.906,366,32390
1747908202326.906,366,32405
1747908202327.812,367,32402
1747908202328.813,367,32375
1747908202329.813,367,32352
1747908202330.812,367,32326
1747908202331.813,367,32307
1747908202332.812,367,32300
1747908202333.813,367,32294
1747908202334.812,367,32288
1747908202335.813,367,32298
1747908202336.812,367,32328
1747908202337.813,367,32370
1747908202338.812,368,32407
1747908202339.813,368,32434
1747908202340.812,368,32448
1747908202341.813,368,32453
1747908202342.812,368,32451
1747908202343.719,368,32447
1747908202344.719,368,32437
1747908202345.719,368,32432
1747908202346.719,368,32425
1747908202347.719,368,32417
1747908202348.719,368,32407
1747908202349.719,369,32398
1747908202350.719,369,32390
1747908202351.719,369,32384
1747908202352.719,369,32377
1747908202353.719,369,32359
1747908202354.719,369,32339
1747908202355.719,369,32325
1747908202356.719,369,32323
1747908202357.719,369,32337
1747908202358.719,369,32351
1747908202359.625,369,32366
1747908202360.625,370,32384
1747908202361.625,370,32411
1747908202362.625,370,32448
1747908202363.625,370,32479
1747908202364.625,370,32487
1747908202365.625,370,32469
1747908202366.625,370,32439
1747908202367.625,370,32415
1747908202368.625,370,32406
1747908202369.625,370,32401
1747908202370.625,370,32396
1747908202371.625,371,32379
1747908202372.625,371,32354
1747908202373.625,371,32342
1747908202374.625,371,32336
1747908202375.5,371,32322
1747908202376.5,371,32303
1747908202377.5,371,32294
1747908202378.5,371,32291
1747908202379.5,371,32292
1747908202380.5,371,32290
1747908202381.5,371,32288
1747908202382.5,372,32286
1747908202383.5,372,32297
1747908202384.5,372,32297
1747908202385.5,372,32295
1747908202386.5,372,32291
1747908202387.5,372,32288
1747908202388.5,372,32284
1747908202389.5,372,32280
1747908202390.5,372,32261
1747908202391.375,372,32234
1747908202392.375,372,32194
1747908202393.375,373,32158
1747908202394.375,373,32131
1747908202395.375,373,32113
1747908202396.375,373,32114
1747908202397.375,373,32132
1747908202398.375,373,32151
1747908202399.375,373,32176
1747908202400.375,373,32211
1747908202401.375,373,32239
1747908202402.375,373,32259
1747908202403.375,373,32267
1747908202404.375,374,32267
1747908202405.375,374,32268
1747908202406.375,374,32251
1747908202407.281,374,32216
1747908202408.281,374,32175
1747908202409.281,374,32134
1747908202410.281,374,32090
1747908202411.281,374,32047
1747908202412.281,374,32012
1747908202413.281,374,31982
1747908202414.281,374,31958
1747908202415.281,375,31945
1747908202416.281,375,31943
1747908202417.281,375,31955
1747908202418.281,375,31970
1747908202419.281,375,32008
1747908202420.281,375,32054
1747908202421.281,375,32092
1747908202422.281,375,32118
1747908202423.187,375,32132
1747908202424.188,375,32125
1747908202425.187,375,32122
1747908202426.188,376,32120
1747908202427.187,376,32120
1747908202428.188,376,32119
1747908202429.187,376,32102
1747908202430.188,376,32076
1747908202431.187,376,32063
1747908202432.188,376,32048
1747908202433.187,376,32044
1747908202434.188,376,32034
1747908202435.187,376,32019
1747908202436.188,376,32012
1747908202437.187,377,32012
1747908202438.188,377,32023
1747908202439.063,377,32029
1747908202440.062,377,32020
1747908202441.063,377,32015
1747908202442.062,377,32006
1747908202443.063,377,31997
1747908202444.062,377,31990
1747908202445.0632,377,31988
1747908202446.062,377,31986
1747908202447.063,377,31994
1747908202448.062,378,31998
1747908202449.063,378,31996
1747908202450.063,378,31992
1747908202451.062,378,31984
1747908202452.063,378,31982
1747908202453.062,378,31984
1747908202454.063,378,31982
1747908202454.969,378,31970
1747908202455.969,378,31964
1747908202456.969,378,31974
1747908202457.969,378,31999
1747908202458.9692,379,32030
1747908202459.969,379,32049
1747908202460.969,379,32053
1747908202461.969,379,32042
1747908202462.969,379,32031
1747908202463.969,379,32020
1747908202464.969,379,32011
1747908202465.969,379,31993
1747908202466.969,379,31973
1747908202467.969,379,31958
1747908202468.969,379,31953
1747908202469.969,380,31960
1747908202471.0,380,31964
1747908202472.0,380,31970
1747908202473.0,380,31969
1747908202474.0,380,31967
1747908202475.0,380,31952
1747908202476.0,380,31944
1747908202477.0,380,31932
1747908202478.0,380,31926
1747908202479.0,380,31932
1747908202480.0,380,31945
1747908202481.0,381,31960
1747908202482.0,381,31959
1747908202483.0,381,31957
1747908202484.0,381,31953
1747908202485.0,381,31954
1747908202486.0,381,31945
1747908202486.7808,381,31933
1747908202487.781,381,31920
1747908202488.781,381,31900
1747908202489.781,381,31889
1747908202490.781,381,31887
1747908202491.781,382,31893
1747908202492.781,382,31911
1747908202493.781,382,31930
1747908202494.781,382,31974
1747908202495.781,382,32018
1747908202496.781,382,32051
1747908202497.781,382,32068
1747908202498.781,382,32066
1747908202499.781,382,32071
1747908202500.781,382,32084
1747908202501.781,382,32092
1747908202502.656,383,32084
1747908202503.656,383,32062
1747908202504.656,383,32027
1747908202505.656,383,31993
1747908202506.656,383,31966
1747908202507.656,383,31934
1747908202508.656,383,31913
1747908202509.656,383,31897
1747908202510.656,383,31900
1747908202511.656,383,31918
1747908202512.656,383,31932
1747908202513.656,384,31955
1747908202514.656,384,31980
1747908202515.656,384,32009
1747908202516.656,384,32036
1747908202517.656,384,32061
1747908202518.594,384,32071
1747908202519.594,384,32066
1747908202520.594,384,32051
1747908202521.594,384,32022
1747908202522.594,384,31996
1747908202523.594,384,31974
1747908202524.594,385,31958
1747908202525.594,385,31951
1747908202526.594,385,31953
1747908202527.594,385,31968
1747908202528.594,385,31988
1747908202529.594,385,32028
1747908202530.594,385,32059
1747908202531.594,385,32084
1747908202532.594,385,32099
1747908202533.594,385,32110
1747908202534.469,385,32116
1747908202535.469,386,32106
1747908202536.469,386,32095
1747908202537.469,386,32092
1747908202538.469,386,32089
1747908202539.469,386,32090
1747908202540.469,386,32091
1747908202541.469,386,32088
1747908202542.469,386,32076
1747908202543.469,386,32067
1747908202544.4692,386,32063
1747908202545.469,386,32062
1747908202546.469,387,32059
1747908202547.469,387,32048
1747908202548.469,387,32034
1747908202549.469,387,32026
1747908202550.344,387,32003
1747908202551.344,387,31983
1747908202552.344,387,31974
1747908202553.344,387,31976
1747908202554.344,387,31989
1747908202555.344,387,32012
1747908202556.344,387,32038
1747908202557.344,388,32055
1747908202558.344,388,32087
1747908202559.344,388,32123
1747908202560.344,388,32156
1747908202561.344,388,32189
1747908202562.344,388,32216
1747908202563.344,388,32238
1747908202564.344,388,32246
1747908202565.344,388,32241
1747908202566.25,388,32209
1747908202567.25,388,32166
1747908202568.25,389,32127
1747908202569.25,389,32088
1747908202570.25,389,32057
1747908202571.25,389,32042
1747908202572.25,389,32044
1747908202573.25,389,32043
1747908202574.25,389,32057
1747908202575.25,389,32077
1747908202576.25,389,32092
1747908202577.25,389,32101
1747908202578.25,389,32117
1747908202579.25,390,32126
1747908202580.25,390,32134
1747908202581.25,390,32132
1747908202582.156,390,32114
1747908202583.156,390,32091
1747908202584.156,390,32074
1747908202585.156,390,32070
1747908202586.156,390,32074
1747908202587.156,390,32079
1747908202588.156,390,32090
1747908202589.156,390,32102
1747908202590.156,391,32134
1747908202591.156,391,32178
1747908202592.156,391,32214
1747908202593.156,391,32236
1747908202594.156,391,32228
1747908202595.156,391,32209
1747908202596.1558,391,32174
1747908202597.156,391,32145
1747908202598.063,391,32110
1747908202599.062,391,32073
1747908202600.063,391,32048
1747908202601.062,392,32038
1747908202602.063,392,32038
1747908202603.062,392,32040
1747908202604.063,392,32049
1747908202605.062,392,32053
1747908202606.063,392,32068
1747908202607.062,392,32096
1747908202608.063,392,32121
1747908202609.062,392,32142
1747908202610.063,392,32153
1747908202611.063,392,32159
1747908202612.062,393,32163
1747908202613.063,393,32166
1747908202613.906,393,32165
1747908202614.906,393,32161
1747908202615.906,393,32148
1747908202616.906,393,32130
1747908202617.906,393,32121
1747908202618.906,393,32108
1747908202619.906,393,32110
1747908202620.906,393,32122
1747908202621.906,393,32148
1747908202622.906,394,32180
1747908202623.906,394,32204
1747908202624.906,394,32205
1747908202625.906,394,32204
1747908202626.906,394,32196
1747908202627.906,394,32184
1747908202628.906,394,32180
1747908202629.813,394,32165
1747908202630.812,394,32143
1747908202631.813,394,32104
1747908202632.812,394,32071
1747908202633.812,395,32056
1747908202634.813,395,32056
1747908202635.812,395,32064
1747908202636.813,395,32070
1747908202637.812,395,32072
1747908202638.813,395,32086
