recording_2_ecgppg_biopac_noisy.acq
Graph Created on: 2025-05-22 11:33:37.664
Recording on: 2025-05-22 11:54:40.285
1 msec/sample
2 channels
PPG, X, PPGED-R
Volts
ECG, Y, RSPEC-R
mV
milliSec	CH1	CH13	
	311320 samples	311320 samples	
0	0.283203	0.0250244	
1	0.282593	0.0239563	
2	0.281677	0.0222778	
3	0.278931	0.0198364	
4	0.27832	0.0164795	
5	0.278625	0.01297	
6	0.278931	0.0115967	
7	0.277405	0.00808716	
8	0.276489	0.00427246	
9	0.273743	-0.00396729	
10	0.273743	-0.0132751	
11	0.269775	-0.0198364	
12	0.267944	-0.0219727	
13	0.267944	-0.0215149	
14	0.26825	-0.0167847	
15	0.264587	-0.00671387	
16	0.266418	0.00656128	
17	0.263977	0.0144958	
18	0.263062	0.0192261	
19	0.259705	0.0262451	
20	0.259094	0.0289917	
21	0.258484	0.0268555	
22	0.255127	0.0219727	
23	0.253906	0.0177002	
24	0.252991	0.0151062	
25	0.250244	0.010376	
26	0.250549	0.0050354	
27	0.245667	0.000610352	
28	0.244141	-0.00686646	
29	0.24292	-0.0149536	
30	0.239563	-0.0244141	
31	0.238037	-0.0309753	
32	0.234985	-0.0309753	
33	0.233459	-0.0286865	
34	0.229797	-0.0219727	
35	0.22583	-0.012207	
36	0.224304	0.00198364	
37	0.219421	0.0163269	
38	0.219116	0.0263977	
39	0.215454	0.0292969	
40	0.210266	0.0274658	
41	0.209045	0.0262451	
42	0.206604	0.0248718	
43	0.202942	0.0224304	
44	0.199585	0.0212097	
45	0.197144	0.0164795	
46	0.194092	0.0111389	
47	0.19104	0.0117493	
48	0.189514	0.00488281	
49	0.185852	-0.00732422	
50	0.184326	-0.0213623	
51	0.181274	-0.0309753	
52	0.180664	-0.0341797	
53	0.176697	-0.0300598	
54	0.171814	-0.0219727	
55	0.170898	-0.0114441	
56	0.171204	0.000610352	
57	0.166931	0.0114441	
58	0.16571	0.0157166	
59	0.162659	0.014801	
60	0.160828	0.0140381	
61	0.160828	0.0146484	
62	0.15686	0.0138855	
63	0.155945	0.0120544	
64	0.155029	0.010376	
65	0.151672	0.00778198	
66	0.151062	0.00869751	
67	0.149536	0.00274658	
68	0.146484	-0.00762939	
69	0.145264	-0.020752	
70	0.144958	-0.0309753	
71	0.143127	-0.0360107	
72	0.141296	-0.0349426	
73	0.142212	-0.0296021	
74	0.138245	-0.022583	
75	0.13916	-0.0144958	
76	0.136719	-0.00442505	
77	0.136719	0.00946045	
78	0.136108	0.0192261	
79	0.136719	0.0221252	
80	0.133972	0.0196838	
81	0.132751	0.0138855	
82	0.132141	0.00915527	
83	0.132446	0.00534058	
84	0.132141	0.00488281	
85	0.131531	0.00518799	
86	0.128784	0.00274658	
87	0.128479	-0.000915527	
88	0.126343	-0.00991821	
89	0.126648	-0.0209045	
90	0.126953	-0.0286865	
91	0.126343	-0.0323486	
92	0.126953	-0.0358582	
93	0.126038	-0.0364685	
94	0.121765	-0.0299072	
95	0.121765	-0.0193787	
96	0.121155	-0.00564575	
97	0.12146	0.00427246	
98	0.12146	0.00976563	
99	0.117493	0.0141907	
100	0.117188	0.0166321	
101	0.116577	0.0170898	
102	0.116272	0.0175476	
103	0.116577	0.0189209	
104	0.115051	0.0141907	
105	0.112305	0.0062561	
106	0.112305	-0.00167847	
107	0.111084	-0.00610352	
108	0.106812	-0.010376	
109	0.106812	-0.017395	
110	0.106812	-0.0262451	
111	0.10376	-0.0309753	
112	0.102539	-0.0320435	
113	0.102234	-0.0294495	
114	0.102539	-0.0228882	
115	0.101624	-0.0125122	
116	0.101318	-0.00152588	
117	0.0979614	0.00747681	
118	0.0985718	0.0160217	
119	0.100708	0.0190735	
120	0.100098	0.0196838	
121	0.0994873	0.0170898	
122	0.098877	0.0131226	
123	0.101929	0.0119019	
124	0.102234	0.00686646	
125	0.101929	0	
126	0.102234	-0.00305176	
127	0.103149	-0.00564575	
128	0.104065	-0.00991821	
129	0.10376	-0.0151062	
130	0.106506	-0.0234985	
131	0.106506	-0.0280762	
132	0.106506	-0.0335693	
133	0.107422	-0.0352478	
134	0.110168	-0.0305176	
135	0.112305	-0.0175476	
136	0.111389	-0.00228882	
137	0.111694	0.0112915	
138	0.112305	0.020752	
139	0.114136	0.0219727	
140	0.114441	0.0187683	
141	0.11322	0.01297	
142	0.116272	0.012207	
143	0.116577	0.0109863	
144	0.116272	0.00671387	
145	0.116577	0.0050354	
146	0.116577	0.00213623	
147	0.117188	-0.00259399	
148	0.116272	-0.0100708	
149	0.116882	-0.0215149	
150	0.117493	-0.0282288	
151	0.117188	-0.0289917	
152	0.116577	-0.0280762	
153	0.117493	-0.0292969	
154	0.116272	-0.0262451	
155	0.116577	-0.0163269	
156	0.117493	-0.00442505	
157	0.116882	0.00961304	
158	0.116882	0.0192261	
159	0.117188	0.0219727	
160	0.116882	0.0222778	
161	0.116272	0.0204468	
162	0.118103	0.0172424	
163	0.121155	0.0141907	
164	0.120544	0.012207	
165	0.120239	0.00976563	
166	0.12085	0.00732422	
167	0.120239	0.00473022	
168	0.12146	-0.00305176	
169	0.12146	-0.0170898	
170	0.12085	-0.0260925	
171	0.12207	-0.0260925	
172	0.122375	-0.0233459	
173	0.12085	-0.0166321	
174	0.12146	-0.00747681	
175	0.12146	0.00244141	
176	0.12146	0.012207	
177	0.12146	0.0218201	
178	0.12207	0.0292969	
179	0.12146	0.0343323	
180	0.121765	0.0363159	
181	0.122375	0.0349426	
182	0.12207	0.0323486	
183	0.12207	0.0299072	
184	0.121765	0.0286865	
185	0.119019	0.0262451	
186	0.116882	0.0216675	
187	0.116882	0.0141907	
188	0.116577	0.00228882	
189	0.116577	-0.0111389	
190	0.116577	-0.0169373	
191	0.116272	-0.0212097	
192	0.112	-0.0210571	
193	0.111694	-0.0146484	
194	0.112305	-0.00564575	
195	0.111389	0.00259399	
196	0.109863	0.0131226	
197	0.107117	0.0262451	
198	0.109863	0.0360107	
199	0.106812	0.0402832	
200	0.104675	0.0393677	
201	0.102539	0.0384521	
202	0.101929	0.0369263	
203	0.102234	0.0358582	
204	0.101929	0.032196	
205	0.0985718	0.032959	
206	0.0973511	0.0312805	
207	0.0970459	0.0270081	
208	0.0924683	0.0198364	
209	0.0924683	0.0100708	
210	0.0888062	0.00274658	
211	0.0878906	-0.000762939	
212	0.0866699	-0.00244141	
213	0.083313	-0.000305176	
214	0.0823975	0.00335693	
215	0.0811768	0.01297	
216	0.0793457	0.0265503	
217	0.0775146	0.0384521	
218	0.072937	0.0437927	
219	0.072937	0.0440979	
220	0.0698853	0.0444031	
221	0.0689697	0.0469971	
222	0.0646973	0.045929	
223	0.0634766	0.0370789	
224	0.062561	0.027771	
225	0.0585938	0.0239563	
226	0.0579834	0.0219727	
227	0.0552368	0.0213623	
228	0.0537109	0.0160217	
229	0.0509644	0.0100708	
230	0.0500488	0.00564575	
231	0.0488281	0.0050354	
232	0.0457764	0.00518799	
233	0.0430298	0.00488281	
234	0.0421143	0.00915527	
235	0.0390625	0.0170898	
236	0.0384521	0.0270081	
237	0.0363159	0.0360107	
238	0.0341797	0.0413513	
239	0.0341797	0.0439453	
240	0.0338745	0.0440979	
241	0.0314331	0.0419617	
242	0.0292969	0.0398254	
243	0.0247192	0.0349426	
244	0.0244141	0.0334167	
245	0.0238037	0.0286865	
246	0.0198364	0.0196838	
247	0.0192261	0.00991821	
248	0.0161743	-0.00228882	
249	0.0137329	-0.0128174	
250	0.0128174	-0.019989	
251	0.0100708	-0.0282288	
252	0.00640869	-0.0335693	
253	0.00488281	-0.0360107	
254	0.000915527	-0.0315857	
255	-0.00152588	-0.0201416	
256	-0.00427246	-0.00274658	
257	-0.00579834	0.00732422	
258	-0.00579834	0.00946045	
259	-0.0100708	0.00747681	
260	-0.0140381	0.0012207	
261	-0.0152588	0.000152588	
262	-0.0204468	-0.000610352	
263	-0.022583	-0.00228882	
264	-0.0241089	-0.00228882	
265	-0.0280762	-0.00473022	
266	-0.0302124	-0.00930786	
267	-0.032959	-0.0169373	
268	-0.0378418	-0.0283813	
269	-0.0387573	-0.0410461	
270	-0.0427246	-0.0488281	
271	-0.0448608	-0.0512695	
272	-0.0488281	-0.0480652	
273	-0.0531006	-0.0411987	
274	-0.0549316	-0.0314331	
275	-0.0585938	-0.0198364	
276	-0.0634766	-0.00732422	
277	-0.0646973	0.00488281	
278	-0.0689697	0.00946045	
279	-0.0738525	0.0119019	
280	-0.0747681	0.0105286	
281	-0.078125	0.00778198	
282	-0.0790405	0.00656128	
283	-0.0830078	0.00442505	
284	-0.0863647	0.00183105	
285	-0.0912476	-0.00259399	
286	-0.093689	-0.00793457	
287	-0.093689	-0.014801	
288	-0.0976563	-0.0268555	
289	-0.101929	-0.0390625	
290	-0.103455	-0.0457764	
291	-0.107422	-0.0466919	
292	-0.110779	-0.045929	
293	-0.11261	-0.0415039	
294	-0.113831	-0.0335693	
295	-0.117188	-0.0193787	
296	-0.121155	-0.00686646	
297	-0.121765	0.00244141	
298	-0.125122	0.00488281	
299	-0.126038	0.00350952	
300	-0.126648	0.00274658	
301	-0.13092	0.00167847	
302	-0.133057	-0.000457764	
303	-0.137024	-0.00396729	
304	-0.140991	-0.00366211	
305	-0.142517	-0.00671387	
306	-0.142822	-0.00793457	
307	-0.14679	-0.0126648	
308	-0.150146	-0.0224304	
309	-0.155029	-0.0349426	
310	-0.157471	-0.0431824	
311	-0.162048	-0.0434875	
312	-0.162354	-0.0364685	
313	-0.166626	-0.0279236	
314	-0.171814	-0.0192261	
315	-0.175781	-0.00701904	
316	-0.175476	0.010376	
317	-0.178833	0.0311279	
318	-0.18158	0.04776	
319	-0.188904	0.0601196	
320	-0.19165	0.0630188	
321	-0.193787	0.0634766	
322	-0.198975	0.0640869	
323	-0.203552	0.0637817	
324	-0.206299	0.0627136	
325	-0.210266	0.0642395	
326	-0.213623	0.0708008	
327	-0.215759	0.0735474	
328	-0.220337	0.0758362	
329	-0.224304	0.0758362	
330	-0.225525	0.0813293	
331	-0.230103	0.0956726	
332	-0.233459	0.113373	
333	-0.23468	0.132446	
334	-0.238037	0.15152	
335	-0.239563	0.172424	
336	-0.240173	0.190277	
337	-0.244751	0.205536	
338	-0.245056	0.216675	
339	-0.249939	0.220032	
340	-0.250244	0.219116	
341	-0.253906	0.221863	
342	-0.255737	0.224152	
343	-0.26001	0.222321	
344	-0.264282	0.217743	
345	-0.26886	0.210876	
346	-0.272522	0.202026	
347	-0.274963	0.187531	
348	-0.279541	0.167999	
349	-0.284119	0.144043	
350	-0.284729	0.119171	
351	-0.289612	0.0923157	
352	-0.294495	0.0610352	
353	-0.299377	0.0292969	
354	-0.303345	0.00320435	
355	-0.303955	-0.0143433	
356	-0.308533	-0.0280762	
357	-0.31189	-0.0386047	
358	-0.316772	-0.0471497	
359	-0.318298	-0.0518799	
360	-0.321045	-0.055542	
361	-0.326843	-0.0590515	
362	-0.331726	-0.0639343	
363	-0.336914	-0.067749	
364	-0.340881	-0.0715637	
365	-0.345764	-0.0785828	
366	-0.351257	-0.0923157	
367	-0.352478	-0.111847	
368	-0.356445	-0.141907	
369	-0.358276	-0.176086	
370	-0.362244	-0.207214	
371	-0.365601	-0.230865	
372	-0.370789	-0.243835	
373	-0.372314	-0.241241	
374	-0.376587	-0.223694	
375	-0.377808	-0.196228	
376	-0.381775	-0.166626	
377	-0.383911	-0.137634	
378	-0.385132	-0.111237	
379	-0.389404	-0.0909424	
380	-0.392456	-0.0701904	
381	-0.396423	-0.0491333	
382	-0.397034	-0.0308228	
383	-0.401306	-0.0202942	
384	-0.406189	-0.0146484	
385	-0.406799	-0.0108337	
386	-0.409546	-0.0100708	
387	-0.414734	-0.0111389	
388	-0.418701	-0.0201416	
389	-0.420227	-0.0323486	
390	-0.425415	-0.0405884	
391	-0.429688	-0.0408936	
392	-0.430908	-0.0378418	
393	-0.436707	-0.0289917	
394	-0.437317	-0.0178528	
395	-0.440674	-0.00732422	
396	-0.445251	0.00167847	
397	-0.448914	0.00900269	
398	-0.45105	0.0164795	
399	-0.454712	0.0192261	
400	-0.458374	0.0177002	
401	-0.463257	0.0180054	
402	-0.466003	0.0221252	
403	-0.46936	0.0250244	
404	-0.472717	0.0241089	
405	-0.475159	0.0187683	
406	-0.479431	0.00961304	
407	-0.484009	0.00106812	
408	-0.488281	-0.00732422	
409	-0.489807	-0.0157166	
410	-0.493164	-0.0190735	
411	-0.497742	-0.0193787	
412	-0.500183	-0.0189209	
413	-0.504456	-0.0128174	
414	-0.50415	-0.00656128	
415	-0.509033	0.00228882	
416	-0.509949	0.0149536	
417	-0.514221	0.0262451	
418	-0.516968	0.0325012	
419	-0.518799	0.0367737	
420	-0.522156	0.0393677	
421	-0.524292	0.0415039	
422	-0.527954	0.0413513	
423	-0.52887	0.0404358	
424	-0.533752	0.0366211	
425	-0.536804	0.0314331	
426	-0.541992	0.0254822	
427	-0.543518	0.0219727	
428	-0.546265	0.0140381	
429	-0.549011	0.00488281	
430	-0.548706	0.000305176	
431	-0.553284	0.000152588	
432	-0.556335	0	
433	-0.558472	0.000610352	
434	-0.561829	0.00778198	
435	-0.562744	0.0216675	
436	-0.566101	0.0364685	
437	-0.567627	0.0488281	
438	-0.570679	0.0537109	
439	-0.573425	0.0523376	
440	-0.577698	0.0521851	
441	-0.581055	0.0537109	
442	-0.582886	0.0518799	
443	-0.585632	0.0491333	
444	-0.587769	0.0469971	
445	-0.592041	0.0463867	
446	-0.592346	0.0418091	
447	-0.596619	0.0340271	
448	-0.600891	0.0221252	
449	-0.602722	0.00579834	
450	-0.606384	-0.00167847	
451	-0.610352	-0.00366211	
452	-0.611877	0.000305176	
453	-0.617676	0.00549316	
454	-0.619202	0.0131226	
455	-0.622253	0.0262451	
456	-0.625916	0.0384521	
457	-0.629578	0.0500488	
458	-0.632629	0.0543213	
459	-0.635986	0.0538635	
460	-0.636902	0.0534058	
461	-0.640564	0.0527954	
462	-0.644836	0.0512695	
463	-0.646362	0.0508118	
464	-0.646973	0.0480652	
465	-0.651245	0.0442505	
466	-0.655212	0.0410461	
467	-0.656128	0.0340271	
468	-0.65979	0.0233459	
469	-0.661621	0.0125122	
470	-0.665894	0.00488281	
471	-0.66864	0.00259399	
472	-0.671082	0.00579834	
473	-0.674133	0.0157166	
474	-0.678406	0.0276184	
475	-0.680237	0.0392151	
476	-0.679932	0.0486755	
477	-0.681458	0.0566101	
478	-0.685425	0.0610352	
479	-0.68512	0.0636292	
480	-0.688782	0.0656128	
481	-0.690002	0.0680542	
482	-0.693359	0.0692749	
483	-0.695496	0.0688171	
484	-0.700378	0.0669861	
485	-0.704041	0.067749	
486	-0.704651	0.0634766	
487	-0.705566	0.0561523	
488	-0.709534	0.0437927	
489	-0.710449	0.0305176	
490	-0.714417	0.0236511	
491	-0.715332	0.022583	
492	-0.71991	0.0273132	
493	-0.724792	0.0378418	
494	-0.724792	0.0524902	
495	-0.727539	0.0688171	
496	-0.72876	0.0830078	
497	-0.733643	0.0923157	
498	-0.737305	0.0994873	
499	-0.739441	0.102997	
500	-0.743408	0.103607	
501	-0.74707	0.10498	
502	-0.749512	0.104523	
503	-0.753479	0.102234	
504	-0.758362	0.0997925	
505	-0.76355	0.0979614	
506	-0.766907	0.0956726	
507	-0.769348	0.0924683	
508	-0.773621	0.0834656	
509	-0.778198	0.0717163	
510	-0.781555	0.0662231	
511	-0.783691	0.0636292	
512	-0.787354	0.0630188	
513	-0.789185	0.0686646	
514	-0.793457	0.0790405	
515	-0.797729	0.0946045	
516	-0.79834	0.109711	
517	-0.802307	0.121307	
518	-0.802917	0.125275	
519	-0.80658	0.12619	
520	-0.810852	0.122986	
521	-0.81543	0.117645	
522	-0.817261	0.114746	
523	-0.817871	0.114899	
524	-0.822144	0.112152	
525	-0.825195	0.109253	
526	-0.827637	0.10376	
527	-0.830078	0.101929	
528	-0.832825	0.0956726	
529	-0.836487	0.0880432	
530	-0.839844	0.0788879	
531	-0.841675	0.0750732	
532	-0.84259	0.0733948	
533	-0.847168	0.078125	
534	-0.85022	0.0901794	
535	-0.849304	0.104675	
536	-0.855408	0.119781	
537	-0.856628	0.131683	
538	-0.857239	0.13916	
539	-0.861206	0.140991	
540	-0.862122	0.138855	
541	-0.865479	0.134583	
542	-0.870667	0.129395	
543	-0.871277	0.12619	
544	-0.874634	0.125427	
545	-0.87616	0.124969	
546	-0.876465	0.119781	
547	-0.877075	0.109253	
548	-0.881042	0.0958252	
549	-0.883484	0.0839233	
550	-0.88501	0.0779724	
551	-0.88623	0.0747681	
552	-0.88562	0.0733948	
553	-0.887146	0.0761414	
554	-0.887451	0.085144	
555	-0.887451	0.0976563	
556	-0.890808	0.111389	
557	-0.887451	0.121002	
558	-0.886536	0.124054	
559	-0.888672	0.119476	
560	-0.886536	0.117493	
561	-0.88623	0.116425	
562	-0.885315	0.113068	
563	-0.885315	0.111694	
564	-0.882568	0.108337	
565	-0.881348	0.105591	
566	-0.876465	0.102386	
567	-0.875854	0.0942993	
568	-0.872192	0.0811768	
569	-0.868225	0.0691223	
570	-0.866699	0.0566101	
571	-0.862122	0.0515747	
572	-0.857849	0.0520325	
573	-0.853271	0.0569153	
574	-0.848389	0.0637817	
575	-0.843506	0.0732422	
576	-0.838318	0.0827026	
577	-0.832825	0.0897217	
578	-0.826721	0.0901794	
579	-0.819397	0.0875854	
580	-0.813599	0.08255	
581	-0.808105	0.0796509	
582	-0.799561	0.0764465	
583	-0.792236	0.0727844	
584	-0.784302	0.0701904	
585	-0.778198	0.0662231	
586	-0.770264	0.0601196	
587	-0.760803	0.0505066	
588	-0.753479	0.0366211	
589	-0.744934	0.0219727	
590	-0.735168	0.0088501	
591	-0.726318	0.00259399	
592	-0.715637	0.000610352	
593	-0.705566	0.00610352	
594	-0.692139	0.0170898	
595	-0.682068	0.0250244	
596	-0.671997	0.0344849	
597	-0.657959	0.0405884	
598	-0.647583	0.0413513	
599	-0.63446	0.0404358	
600	-0.622559	0.0364685	
601	-0.609131	0.0309753	
602	-0.597839	0.0259399	
603	-0.583801	0.0205994	
604	-0.568848	0.0169373	
605	-0.558777	0.0123596	
606	-0.544128	0.00762939	
607	-0.52948	0	
608	-0.514832	-0.0140381	
609	-0.500183	-0.0309753	
610	-0.48584	-0.0413513	
611	-0.474854	-0.0439453	
612	-0.458679	-0.0413513	
613	-0.446777	-0.0357056	
614	-0.432129	-0.0263977	
615	-0.419006	-0.0149536	
616	-0.404358	-0.00366211	
617	-0.389404	0.0050354	
618	-0.374451	0.0117493	
619	-0.360107	0.012207	
620	-0.3479	0.0102234	
621	-0.333557	0.00656128	
622	-0.318298	0.000305176	
623	-0.305176	-0.00228882	
624	-0.291443	-0.00335693	
625	-0.276794	-0.00534058	
626	-0.265198	-0.00854492	
627	-0.25116	-0.0175476	
628	-0.237122	-0.0337219	
629	-0.222778	-0.0492859	
630	-0.207825	-0.0604248	
631	-0.196228	-0.0642395	
632	-0.182495	-0.0610352	
633	-0.168152	-0.0556946	
634	-0.154419	-0.0439453	
635	-0.139771	-0.0289917	
636	-0.128479	-0.0125122	
637	-0.113831	-0.0012207	
638	-0.0997925	0.00244141	
639	-0.0863647	0.000457764	
640	-0.0738525	0	
641	-0.0601196	-0.00198364	
642	-0.0454712	-0.00518799	
643	-0.03479	-0.0120544	
644	-0.0216675	-0.0215149	
645	-0.00762939	-0.025177	
646	0.00732422	-0.0280762	
647	0.0177002	-0.0366211	
648	0.0286865	-0.0492859	
649	0.0424194	-0.0621033	
650	0.0567627	-0.0700378	
651	0.0671387	-0.0718689	
652	0.0802612	-0.0686646	
653	0.0949097	-0.059967	
654	0.103149	-0.0431824	
655	0.115967	-0.0271606	
656	0.1297	-0.012207	
657	0.140076	-0.000457764	
658	0.154419	0.00244141	
659	0.16449	0.00167847	
660	0.177917	-0.000305176	
661	0.188599	-0.00274658	
662	0.199585	-0.00610352	
663	0.213013	-0.0100708	
664	0.223694	-0.0144958	
665	0.233154	-0.0169373	
666	0.245972	-0.0195313	
667	0.257263	-0.0250244	
668	0.267029	-0.0372314	
669	0.277405	-0.0511169	
670	0.286255	-0.0579834	
671	0.297852	-0.0579834	
672	0.308228	-0.0540161	
673	0.318604	-0.0465393	
674	0.325623	-0.0344849	
675	0.335693	-0.0202942	
676	0.345459	-0.00976563	
677	0.354309	-0.00244141	
678	0.364075	0.00152588	
679	0.371704	0.00427246	
680	0.379333	0.0050354	
681	0.388184	0.00793457	
682	0.394287	0.0102234	
683	0.39978	0.0128174	
684	0.405579	0.012207	
685	0.413208	0.00732422	
686	0.418396	0.00427246	
687	0.423889	-0.00274658	
688	0.428467	-0.0149536	
689	0.433655	-0.0312805	
690	0.438843	-0.0442505	
691	0.44342	-0.0488281	
692	0.447693	-0.0463867	
693	0.452881	-0.0369263	
694	0.455627	-0.0242615	
695	0.4599	-0.00991821	
696	0.465088	0.00411987	
697	0.46936	0.0140381	
698	0.473938	0.0151062	
699	0.47821	0.0138855	
700	0.484314	0.0102234	
701	0.487366	0.00900269	
702	0.492249	0.00732422	
703	0.497131	0.00747681	
704	0.499268	0.00671387	
705	0.505981	0.00335693	
706	0.51178	0.000457764	
707	0.514526	-0.00320435	
708	0.518188	-0.01297	
709	0.521545	-0.0250244	
710	0.524292	-0.0360107	
711	0.527954	-0.0411987	
712	0.532227	-0.0410461	
713	0.536499	-0.0360107	
714	0.538635	-0.0222778	
715	0.543213	-0.00534058	
716	0.54718	0.0111389	
717	0.548401	0.0209045	
718	0.552673	0.0222778	
719	0.55542	0.0222778	
720	0.560608	0.0221252	
721	0.560913	0.0213623	
722	0.562744	0.0170898	
723	0.566101	0.01297	
724	0.566711	0.00991821	
725	0.567932	0.00473022	
726	0.571899	0.00213623	
727	0.572205	-0.00473022	
728	0.575256	-0.0163269	
729	0.578003	-0.0288391	
730	0.581665	-0.0382996	
731	0.582581	-0.0416565	
732	0.582581	-0.0389099	
733	0.583191	-0.0311279	
734	0.586853	-0.0167847	
735	0.586853	-0.000762939	
736	0.587769	0.0123596	
737	0.587769	0.0222778	
738	0.591431	0.0262451	
739	0.591125	0.0248718	
740	0.591736	0.022583	
741	0.592346	0.0195313	
742	0.592346	0.0164795	
743	0.592957	0.0144958	
744	0.592041	0.0115967	
745	0.591736	0.00808716	
746	0.592041	0.00686646	
747	0.591736	0.00167847	
748	0.592041	-0.00900269	
749	0.592041	-0.0218201	
750	0.589905	-0.0334167	
751	0.589905	-0.0386047	
752	0.591431	-0.0366211	
753	0.5896	-0.0299072	
754	0.588379	-0.0193787	
755	0.586243	-0.00411987	
756	0.586853	0.0123596	
757	0.586548	0.0257874	
758	0.586853	0.0311279	
759	0.584412	0.0320435	
760	0.585938	0.0299072	
761	0.582275	0.0300598	
762	0.58197	0.0299072	
763	0.58197	0.0288391	
764	0.578308	0.0263977	
765	0.577393	0.0219727	
766	0.577087	0.0187683	
767	0.576782	0.0134277	
768	0.57251	-0.00198364	
769	0.571899	-0.0187683	
770	0.567322	-0.032959	
771	0.566406	-0.0384521	
772	0.567322	-0.0363159	
773	0.56366	-0.0291443	
774	0.561218	-0.0163269	
775	0.562744	0.00259399	
776	0.562134	0.0205994	
777	0.559082	0.030365	
778	0.557861	0.0297546	
779	0.556641	0.0273132	
780	0.553284	0.0270081	
781	0.552979	0.0271606	
782	0.550537	0.0254822	
783	0.547791	0.0202942	
784	0.547791	0.0175476	
785	0.54718	0.0161743	
786	0.545349	0.014801	
787	0.542908	0.00854492	
788	0.542297	-0.00488281	
789	0.541077	-0.020752	
790	0.540771	-0.0305176	
791	0.538025	-0.032959	
792	0.537109	-0.0312805	
793	0.534973	-0.0238037	
794	0.532532	-0.0115967	
795	0.532227	0.00167847	
796	0.528259	0.014801	
797	0.528259	0.0270081	
798	0.524597	0.0314331	
799	0.523071	0.0292969	
800	0.521851	0.0250244	
801	0.519714	0.0222778	
802	0.518494	0.0239563	
803	0.515137	0.0245667	
804	0.509949	0.0238037	
805	0.508118	0.0196838	
806	0.508728	0.0164795	
807	0.505066	0.0100708	
808	0.503235	-0.00488281	
809	0.500183	-0.0215149	
810	0.499268	-0.032196	
811	0.497437	-0.0360107	
812	0.49408	-0.0314331	
813	0.493469	-0.0241089	
814	0.490112	-0.0138855	
815	0.488586	0.000152588	
816	0.487671	0.0141907	
817	0.484009	0.0222778	
818	0.482788	0.0254822	
819	0.480042	0.0267029	
820	0.480347	0.0247192	
821	0.4776	0.0198364	
822	0.475159	0.0178528	
823	0.474243	0.017395	
824	0.46936	0.0146484	
825	0.469055	0.0125122	
826	0.465698	0.00976563	
827	0.464478	0.00228882	
828	0.464478	-0.00961304	
829	0.461121	-0.022583	
830	0.459595	-0.0335693	
831	0.456848	-0.0386047	
832	0.456238	-0.0389099	
833	0.453796	-0.0340271	
834	0.450439	-0.0218201	
835	0.450134	-0.00717163	
836	0.450134	0.00869751	
837	0.449219	0.0213623	
838	0.445557	0.0262451	
839	0.444641	0.0260925	
840	0.444336	0.0242615	
841	0.440063	0.0219727	
842	0.439758	0.0192261	
843	0.440063	0.0146484	
844	0.435486	0.0120544	
845	0.435181	0.00732422	
846	0.434265	0.00442505	
847	0.431213	-0.000610352	
848	0.429382	-0.0117493	
849	0.425415	-0.0239563	
850	0.42572	-0.0340271	
851	0.424805	-0.0396729	
852	0.423279	-0.0405884	
853	0.420227	-0.0335693	
854	0.420532	-0.0193787	
855	0.41687	-0.00488281	
856	0.415039	0.00930786	
857	0.415649	0.0196838	
858	0.414124	0.0268555	
859	0.411072	0.0294495	
860	0.410461	0.0283813	
861	0.410461	0.0247192	
862	0.410767	0.0213623	
863	0.410461	0.019989	
864	0.406494	0.0178528	
865	0.405884	0.014801	
866	0.405884	0.0100708	
867	0.405579	0.00167847	
868	0.406189	-0.0112915	
869	0.405884	-0.0236511	
870	0.405273	-0.0354004	
871	0.405884	-0.0418091	
872	0.405273	-0.0439453	
873	0.405579	-0.0392151	
874	0.405884	-0.0242615	
875	0.409241	-0.00686646	
876	0.410461	0.00961304	
877	0.410767	0.0219727	
878	0.410461	0.0292969	
879	0.410767	0.0315857	
880	0.415649	0.0314331	
881	0.415344	0.0273132	
882	0.416565	0.0254822	
883	0.419617	0.025177	
884	0.420837	0.022583	
885	0.420532	0.0195313	
886	0.420227	0.01297	
887	0.423889	0.00213623	
888	0.425415	-0.012207	
889	0.425415	-0.0268555	
890	0.426025	-0.0382996	
891	0.428772	-0.040741	
892	0.428467	-0.0375366	
893	0.430603	-0.0320435	
894	0.429993	-0.0231934	
895	0.430603	-0.00793457	
896	0.434875	0.00930786	
897	0.434875	0.0215149	
898	0.435181	0.0245667	
899	0.435486	0.0218201	
900	0.439148	0.0170898	
901	0.440369	0.0152588	
902	0.440369	0.014801	
903	0.440674	0.0128174	
904	0.44342	0.0115967	
905	0.445557	0.00778198	
906	0.444946	0.00396729	
907	0.446167	-0.00289917	
908	0.449829	-0.0149536	
909	0.450134	-0.0285339	
910	0.450439	-0.0372314	
911	0.450134	-0.0411987	
912	0.450134	-0.0389099	
913	0.45105	-0.0317383	
914	0.454712	-0.0195313	
915	0.455017	-0.00640869	
916	0.454712	0.00656128	
917	0.454712	0.0164795	
918	0.455017	0.0213623	
919	0.454712	0.0216675	
920	0.455017	0.0202942	
921	0.454712	0.0196838	
922	0.453491	0.0178528	
923	0.457764	0.017395	
924	0.455322	0.0146484	
925	0.454407	0.0126648	
926	0.454407	0.00915527	
927	0.458069	0.000305176	
928	0.458984	-0.0126648	
929	0.458374	-0.0263977	
930	0.45929	-0.038147	
931	0.4599	-0.0404358	
932	0.4599	-0.0346375	
933	0.4599	-0.0271606	
934	0.459595	-0.0184631	
935	0.45929	-0.00671387	
936	0.460205	0.00549316	
937	0.45929	0.0189209	
938	0.459595	0.0265503	
939	0.458984	0.0292969	
940	0.45929	0.0270081	
941	0.462341	0.0242615	
942	0.463562	0.0196838	
943	0.463257	0.0151062	
944	0.462952	0.0115967	
945	0.462646	0.00839233	
946	0.465088	0.00549316	
947	0.462341	0.00152588	
948	0.461731	-0.00717163	
949	0.463867	-0.0193787	
950	0.462341	-0.0289917	
951	0.462646	-0.0315857	
952	0.463257	-0.0292969	
953	0.462646	-0.0231934	
954	0.460205	-0.00946045	
955	0.460205	0.00762939	
956	0.45929	0.0285339	
957	0.45929	0.0428772	
958	0.45929	0.0453186	
959	0.457458	0.0431824	
960	0.455322	0.0386047	
961	0.454712	0.0312805	
962	0.454712	0.0254822	
963	0.454712	0.025177	
964	0.454407	0.0265503	
965	0.454712	0.0248718	
966	0.451965	0.0212097	
967	0.450134	0.0123596	
968	0.449829	-0.000305176	
969	0.449829	-0.0126648	
970	0.449829	-0.0234985	
971	0.446777	-0.0280762	
972	0.444946	-0.0242615	
973	0.444031	-0.0187683	
974	0.444946	-0.00778198	
975	0.445557	0.00305176	
976	0.442505	0.0187683	
977	0.440979	0.03479	
978	0.440063	0.0404358	
979	0.440063	0.0413513	
980	0.439453	0.043335	
981	0.435486	0.0457764	
982	0.43457	0.0480652	
983	0.435486	0.0482178	
984	0.431824	0.0437927	
985	0.429993	0.0408936	
986	0.430298	0.0360107	
987	0.429382	0.0286865	
988	0.42511	0.0189209	
989	0.42511	0.00564575	
990	0.422058	-0.00244141	
991	0.420532	-0.00473022	
992	0.421143	-0.00427246	
993	0.41626	0.00244141	
994	0.415649	0.0119019	
995	0.415039	0.0250244	
996	0.411682	0.0387573	
997	0.410461	0.0482178	
998	0.410461	0.0502014	
999	0.410156	0.0482178	
1000	0.406799	0.0454712	
1001	0.406189	0.0440979	
1002	0.405273	0.0439453	
1003	0.402832	0.0398254	
1004	0.400696	0.0358582	
1005	0.39978	0.0323486	
1006	0.397034	0.0296021	
1007	0.396118	0.0244141	
1008	0.392456	0.0170898	
1009	0.39093	0.00747681	
1010	0.390015	-0.00228882	
1011	0.386353	-0.00961304	
1012	0.386047	-0.0106812	
1013	0.382996	-0.00350952	
1014	0.38147	0.0119019	
1015	0.377808	0.0289917	
1016	0.376587	0.0450134	
1017	0.375366	0.0534058	
1018	0.371399	0.0546265	
1019	0.371094	0.0494385	
1020	0.368042	0.04776	
1021	0.366211	0.0444031	
1022	0.365601	0.0430298	
1023	0.361633	0.0408936	
1024	0.361328	0.0366211	
1025	0.357361	0.0312805	
1026	0.355835	0.0250244	
1027	0.352173	0.0163269	
1028	0.348511	0.00442505	
1029	0.346069	-0.00976563	
1030	0.345459	-0.0236511	
1031	0.341492	-0.0309753	
1032	0.337219	-0.0309753	
1033	0.333557	-0.0263977	
1034	0.332031	-0.0152588	
1035	0.328674	-0.0012207	
1036	0.327148	0.0105286	
1037	0.323792	0.0166321	
1038	0.321045	0.0170898	
1039	0.317688	0.0170898	
1040	0.314331	0.0190735	
1041	0.31311	0.019989	
1042	0.308838	0.0138855	
1043	0.306702	0.00320435	
1044	0.303345	-0.00411987	
1045	0.299072	-0.00717163	
1046	0.2948	-0.00808716	
1047	0.293274	-0.015564	
1048	0.289307	-0.0311279	
1049	0.288086	-0.0460815	
1050	0.282288	-0.0531006	
1051	0.27771	-0.0531006	
1052	0.273743	-0.0505066	
1053	0.272827	-0.0437927	
1054	0.269775	-0.0317383	
1055	0.267944	-0.0152588	
1056	0.263977	-0.000762939	
1057	0.263367	0.00747681	
1058	0.256348	0.0100708	
1059	0.255432	0.00778198	
1060	0.250549	0.00656128	
1061	0.249329	0.00442505	
1062	0.245361	0.00259399	
1063	0.243835	0.00274658	
1064	0.240784	0.00244141	
1065	0.239258	-0.000305176	
1066	0.235901	-0.00427246	
1067	0.234985	-0.0106812	
1068	0.230713	-0.022583	
1069	0.228882	-0.0343323	
1070	0.224304	-0.0436401	
1071	0.220642	-0.0474548	
1072	0.218811	-0.0500488	
1073	0.214844	-0.0439453	
1074	0.210876	-0.0315857	
1075	0.209961	-0.0163269	
1076	0.206299	0	
1077	0.201416	0.0114441	
1078	0.200195	0.0172424	
1079	0.196228	0.0196838	
1080	0.191345	0.0213623	
1081	0.189514	0.0187683	
1082	0.185852	0.00991821	
1083	0.181885	0.00259399	
1084	0.177002	0.000152588	
1085	0.174561	0.000152588	
1086	0.170593	-0.000457764	
1087	0.166016	-0.00732422	
1088	0.161133	-0.0201416	
1089	0.157166	-0.0367737	
1090	0.151978	-0.0500488	
1091	0.149841	-0.0537109	
1092	0.146484	-0.0494385	
1093	0.141907	-0.0382996	
1094	0.137939	-0.0222778	
1095	0.136108	-0.00656128	
1096	0.131226	0.0128174	
1097	0.127258	0.0335693	
1098	0.126343	0.0476074	
1099	0.122986	0.057373	
1100	0.117798	0.0631714	
1101	0.117188	0.0674438	
1102	0.112915	0.0698853	
1103	0.108337	0.0714111	
1104	0.10376	0.0726318	
1105	0.102234	0.0747681	
1106	0.0991821	0.0756836	
1107	0.093689	0.0752258	
1108	0.0915527	0.0733948	
1109	0.0866699	0.0714111	
1110	0.0823975	0.0741577	
1111	0.0796509	0.0834656	
1112	0.0775146	0.0984192	
1113	0.0738525	0.117493	
1114	0.0723267	0.140228	
1115	0.0683594	0.168152	
1116	0.0674438	0.193329	
1117	0.0634766	0.212402	
1118	0.0588989	0.226593	
1119	0.0576782	0.236816	
1120	0.0540161	0.237122	
1121	0.0500488	0.233154	
1122	0.0482178	0.234222	
1123	0.0436401	0.236053	
1124	0.0393677	0.231934	
1125	0.0390625	0.226593	
1126	0.0354004	0.21759	
1127	0.0308228	0.201874	
1128	0.0259399	0.17807	
1129	0.0250244	0.155792	
1130	0.0201416	0.133057	
1131	0.015564	0.106659	
1132	0.0115967	0.0796509	
1133	0.00579834	0.0517273	
1134	0.00427246	0.0300598	
1135	0.000305176	0.0128174	
1136	-0.000610352	-0.000152588	
1137	-0.00518799	-0.0117493	
1138	-0.0109863	-0.0218201	
1139	-0.0149536	-0.0323486	
1140	-0.0158691	-0.0439453	
1141	-0.0198364	-0.0524902	
1142	-0.0241089	-0.0588989	
1143	-0.0271606	-0.063324	
1144	-0.0320435	-0.0660706	
1145	-0.03479	-0.0683594	
1146	-0.0387573	-0.0775146	
1147	-0.0402832	-0.0968933	
1148	-0.0442505	-0.126648	
1149	-0.0491333	-0.160065	
1150	-0.0534058	-0.193481	
1151	-0.057373	-0.222015	
1152	-0.0595093	-0.243988	
1153	-0.0631714	-0.251312	
1154	-0.0674438	-0.240631	
1155	-0.0695801	-0.215454	
1156	-0.0704956	-0.184479	
1157	-0.072937	-0.155334	
1158	-0.0744629	-0.13031	
1159	-0.078125	-0.108337	
1160	-0.0820923	-0.088501	
1161	-0.0830078	-0.0701904	
1162	-0.0869751	-0.0492859	
1163	-0.0906372	-0.0325012	
1164	-0.0915527	-0.0218201	
1165	-0.0927734	-0.014801	
1166	-0.0961304	-0.00976563	
1167	-0.0985718	-0.0105286	
1168	-0.101624	-0.0205994	
1169	-0.104065	-0.03479	
1170	-0.108032	-0.045166	
1171	-0.108643	-0.0485229	
1172	-0.111694	-0.0466919	
1173	-0.11261	-0.0389099	
1174	-0.115967	-0.0244141	
1175	-0.117798	-0.00747681	
1176	-0.12207	0.0114441	
1177	-0.126038	0.0227356	
1178	-0.127563	0.0263977	
1179	-0.127869	0.0248718	
1180	-0.132141	0.0221252	
1181	-0.135498	0.0178528	
1182	-0.138245	0.0178528	
1183	-0.142517	0.0213623	
1184	-0.146179	0.0215149	
1185	-0.147705	0.0190735	
1186	-0.151978	0.0146484	
1187	-0.156555	0.00732422	
1188	-0.159912	-0.0050354	
1189	-0.162354	-0.0196838	
1190	-0.166016	-0.0312805	
1191	-0.168762	-0.0340271	
1192	-0.171509	-0.0314331	
1193	-0.176697	-0.0259399	
1194	-0.180969	-0.0183105	
1195	-0.183716	-0.00213623	
1196	-0.186157	0.0177002	
1197	-0.189514	0.0334167	
1198	-0.193787	0.0411987	
1199	-0.199585	0.0457764	
1200	-0.201111	0.0460815	
1201	-0.205078	0.0460815	
1202	-0.20874	0.0460815	
1203	-0.211182	0.0453186	
1204	-0.214539	0.0416565	
1205	-0.218506	0.0349426	
1206	-0.223083	0.0292969	
1207	-0.226135	0.0238037	
1208	-0.229492	0.0125122	
1209	-0.232544	-0.00411987	
1210	-0.238647	-0.0166321	
1211	-0.239563	-0.0195313	
1212	-0.24292	-0.0187683	
1213	-0.243835	-0.00946045	
1214	-0.248413	0.00778198	
1215	-0.250549	0.0271606	
1216	-0.254822	0.0480652	
1217	-0.257874	0.0634766	
1218	-0.259705	0.0671387	
1219	-0.264282	0.0630188	
1220	-0.267944	0.0576782	
1221	-0.26886	0.0509644	
1222	-0.272827	0.0489807	
1223	-0.274658	0.0492859	
1224	-0.278625	0.0512695	
1225	-0.281982	0.0508118	
1226	-0.284729	0.0486755	
1227	-0.289917	0.0437927	
1228	-0.293274	0.0282288	
1229	-0.297852	0.00549316	
1230	-0.302734	-0.0126648	
1231	-0.307007	-0.0163269	
1232	-0.311279	-0.0115967	
1233	-0.315857	-0.00152588	
1234	-0.32135	0.0119019	
1235	-0.323486	0.0270081	
1236	-0.326538	0.0415039	
1237	-0.328369	0.0518799	
1238	-0.332642	0.058136	
1239	-0.337219	0.0627136	
1240	-0.340881	0.065155	
1241	-0.343628	0.0631714	
1242	-0.346069	0.058136	
1243	-0.351257	0.055542	
1244	-0.35553	0.0537109	
1245	-0.357361	0.052948	
1246	-0.362854	0.04776	
1247	-0.366211	0.0386047	
1248	-0.371399	0.0224304	
1249	-0.375061	0.00717163	
1250	-0.376892	-0.00595093	
1251	-0.381165	-0.00930786	
1252	-0.387573	-0.00671387	
1253	-0.391541	0.0012207	
1254	-0.395203	0.0149536	
1255	-0.400391	0.0335693	
1256	-0.401917	0.055542	
1257	-0.406189	0.0718689	
1258	-0.411072	0.0776672	
1259	-0.414124	0.0787354	
1260	-0.420532	0.0810242	
1261	-0.423889	0.0823975	
1262	-0.429688	0.0779724	
1263	-0.43396	0.0717163	
1264	-0.435181	0.0680542	
1265	-0.436096	0.0657654	
1266	-0.441284	0.0657654	
1267	-0.445557	0.0624084	
1268	-0.448608	0.0485229	
1269	-0.450134	0.0318909	
1270	-0.453796	0.0164795	
1271	-0.455017	0.0152588	
1272	-0.458679	0.018158	
1273	-0.460815	0.0294495	
1274	-0.465393	0.0474548	
1275	-0.467529	0.0704956	
1276	-0.469971	0.093689	
1277	-0.473022	0.10849	
1278	-0.475464	0.11261	
1279	-0.479431	0.112	
1280	-0.480652	0.110168	
1281	-0.484009	0.107727	
1282	-0.484619	0.107422	
1283	-0.489197	0.107574	
1284	-0.492859	0.107574	
1285	-0.494995	0.10498	
1286	-0.498962	0.0994873	
1287	-0.502625	0.0868225	
1288	-0.506287	0.0668335	
1289	-0.507813	0.0517273	
1290	-0.51239	0.0440979	
1291	-0.513916	0.0413513	
1292	-0.517273	0.0453186	
1293	-0.52002	0.0593567	
1294	-0.523376	0.0805664	
1295	-0.524292	0.106812	
1296	-0.528564	0.129547	
1297	-0.534058	0.141602	
1298	-0.534058	0.146942	
1299	-0.538635	0.149078	
1300	-0.542908	0.146484	
1301	-0.544128	0.141754	
1302	-0.549011	0.138702	
1303	-0.553894	0.134583	
1304	-0.557861	0.129852	
1305	-0.561829	0.126495	
1306	-0.563049	0.12085	
1307	-0.567627	0.103912	
1308	-0.571289	0.0810242	
1309	-0.57373	0.0621033	
1310	-0.58075	0.0537109	
1311	-0.582581	0.0514221	
1312	-0.586548	0.0564575	
1313	-0.590515	0.0697327	
1314	-0.592957	0.0946045	
1315	-0.596924	0.123444	
1316	-0.600586	0.148468	
1317	-0.601807	0.161285	
1318	-0.605469	0.15976	
1319	-0.610352	0.156097	
1320	-0.612488	0.151672	
1321	-0.615845	0.149384	
1322	-0.620117	0.146637	
1323	-0.622253	0.143738	
1324	-0.626221	0.139618	
1325	-0.629578	0.135345	
1326	-0.631409	0.129395	
1327	-0.632019	0.11734	
1328	-0.636292	0.0924683	
1329	-0.636902	0.0683594	
1330	-0.640869	0.0537109	
1331	-0.641174	0.0494385	
1332	-0.641785	0.0541687	
1333	-0.643005	0.0668335	
1334	-0.645447	0.0866699	
1335	-0.646057	0.11261	
1336	-0.646362	0.135956	
1337	-0.646057	0.150757	
1338	-0.646057	0.153351	
1339	-0.646362	0.149078	
1340	-0.646362	0.144501	
1341	-0.646057	0.142365	
1342	-0.646362	0.140533	
1343	-0.645752	0.136566	
1344	-0.642395	0.129852	
1345	-0.641174	0.124817	
1346	-0.640259	0.116882	
1347	-0.636597	0.0991821	
1348	-0.635986	0.070343	
1349	-0.632629	0.0401306	
1350	-0.628662	0.019989	
1351	-0.627136	0.0115967	
1352	-0.623169	0.0158691	
1353	-0.618591	0.030365	
1354	-0.615845	0.0520325	
1355	-0.608826	0.080719	
1356	-0.603333	0.108795	
1357	-0.598755	0.121307	
1358	-0.592041	0.121307	
1359	-0.588074	0.119934	
1360	-0.578613	0.116882	
1361	-0.57373	0.110168	
1362	-0.567322	0.102997	
1363	-0.562439	0.0968933	
1364	-0.552673	0.0878906	
1365	-0.544128	0.0802612	
1366	-0.534973	0.0747681	
1367	-0.529175	0.0595093	
1368	-0.520325	0.0308228	
1369	-0.510254	0.00152588	
1370	-0.499878	-0.0183105	
1371	-0.490112	-0.0279236	
1372	-0.480957	-0.0267029	
1373	-0.467834	-0.0178528	
1374	-0.456543	0.00137329	
1375	-0.446167	0.0296021	
1376	-0.43457	0.0566101	
1377	-0.422058	0.0698853	
1378	-0.411377	0.0706482	
1379	-0.397949	0.0657654	
1380	-0.387878	0.0602722	
1381	-0.374756	0.055542	
1382	-0.36377	0.0495911	
1383	-0.349731	0.0468445	
1384	-0.339355	0.0437927	
1385	-0.325317	0.037384	
1386	-0.314026	0.0279236	
1387	-0.301514	0.00656128	
1388	-0.288086	-0.0247192	
1389	-0.279236	-0.0556946	
1390	-0.262451	-0.0775146	
1391	-0.250854	-0.087738	
1392	-0.237122	-0.0865173	
1393	-0.222778	-0.0700378	
1394	-0.211182	-0.0431824	
1395	-0.196838	-0.00930786	
1396	-0.18158	0.0233459	
1397	-0.168152	0.0405884	
1398	-0.155029	0.0428772	
1399	-0.142822	0.0384521	
1400	-0.125732	0.0338745	
1401	-0.110168	0.0311279	
1402	-0.0985718	0.0270081	
1403	-0.0839233	0.0219727	
1404	-0.0701904	0.0144958	
1405	-0.0558472	0.00640869	
1406	-0.0393677	-0.00106812	
1407	-0.0262451	-0.0204468	
1408	-0.0125122	-0.0491333	
1409	0.00274658	-0.0801086	
1410	0.017395	-0.101471	
1411	0.0317383	-0.106964	
1412	0.0473022	-0.101318	
1413	0.0622559	-0.0849915	
1414	0.0796509	-0.0567627	
1415	0.0946045	-0.0160217	
1416	0.108948	0.0248718	
1417	0.123901	0.0447083	
1418	0.140076	0.0444031	
1419	0.154724	0.0363159	
1420	0.169373	0.0268555	
1421	0.184326	0.0196838	
1422	0.198059	0.0154114	
1423	0.216675	0.0141907	
1424	0.231934	0.0119019	
1425	0.245667	0.00656128	
1426	0.257874	-0.0012207	
1427	0.275574	-0.0205994	
1428	0.290527	-0.0537109	
1429	0.304565	-0.0894165	
1430	0.317078	-0.113373	
1431	0.330811	-0.121155	
1432	0.345154	-0.113831	
1433	0.358582	-0.096283	
1434	0.370178	-0.0627136	
1435	0.383606	-0.0186157	
1436	0.397339	0.0238037	
1437	0.410156	0.0460815	
1438	0.423889	0.0482178	
1439	0.43396	0.0415039	
1440	0.443726	0.0343323	
1441	0.456543	0.0292969	
1442	0.468445	0.022583	
1443	0.4776	0.0189209	
1444	0.490417	0.0167847	
1445	0.501709	0.0141907	
1446	0.51178	0.00595093	
1447	0.522156	-0.0186157	
1448	0.531311	-0.0585938	
1449	0.541382	-0.0949097	
1450	0.551758	-0.116577	
1451	0.561218	-0.123291	
1452	0.570984	-0.116577	
1453	0.580444	-0.0967407	
1454	0.5896	-0.06073	
1455	0.599365	-0.0160217	
1456	0.609436	0.0256348	
1457	0.615234	0.0494385	
1458	0.624695	0.0532532	
1459	0.634155	0.0486755	
1460	0.643921	0.0421143	
1461	0.653381	0.0344849	
1462	0.6604	0.0273132	
1463	0.66925	0.0222778	
1464	0.677795	0.0152588	
1465	0.683899	0.0117493	
1466	0.692749	0.00671387	
1467	0.698853	-0.0119019	
1468	0.707703	-0.0498962	
1469	0.717773	-0.0918579	
1470	0.724487	-0.120392	
1471	0.732727	-0.128479	
1472	0.739136	-0.119629	
1473	0.746765	-0.0991821	
1474	0.752563	-0.0630188	
1475	0.759277	-0.0167847	
1476	0.765991	0.0282288	
1477	0.77179	0.0541687	
1478	0.776672	0.0604248	
1479	0.782776	0.059967	
1480	0.787659	0.0553894	
1481	0.792236	0.0479126	
1482	0.796509	0.0405884	
1483	0.802002	0.0364685	
1484	0.809326	0.0326538	
1485	0.812073	0.0289917	
1486	0.81665	0.0213623	
1487	0.821228	-0.00289917	
1488	0.826111	-0.0471497	
1489	0.830078	-0.0920105	
1490	0.832214	-0.119324	
1491	0.836487	-0.126953	
1492	0.837097	-0.118866	
1493	0.84198	-0.096283	
1494	0.845947	-0.0559998	
1495	0.85022	-0.00686646	
1496	0.852356	0.039978	
1497	0.856323	0.0680542	
1498	0.856934	0.0723267	
1499	0.861206	0.0654602	
1500	0.861816	0.0567627	
1501	0.865173	0.0512695	
1502	0.865479	0.0483704	
1503	0.870056	0.0447083	
1504	0.870361	0.0366211	
1505	0.871887	0.0294495	
1506	0.875549	0.0189209	
1507	0.875854	-0.00900269	
1508	0.87616	-0.0537109	
1509	0.875854	-0.0949097	
1510	0.879517	-0.123444	
1511	0.880737	-0.133057	
1512	0.880127	-0.125122	
1513	0.881042	-0.0979614	
1514	0.882568	-0.0511169	
1515	0.88562	0.00518799	
1516	0.885925	0.0598145	
1517	0.88623	0.0923157	
1518	0.888062	0.0924683	
1519	0.889282	0.0801086	
1520	0.889893	0.0668335	
1521	0.890808	0.0585938	
1522	0.890198	0.0538635	
1523	0.890503	0.0511169	
1524	0.891418	0.0485229	
1525	0.890808	0.0444031	
1526	0.891113	0.0350952	
1527	0.890198	0.00411987	
1528	0.890808	-0.0469971	
1529	0.890808	-0.096283	
1530	0.890198	-0.124664	
1531	0.890808	-0.136261	
1532	0.890503	-0.130615	
1533	0.891113	-0.105286	
1534	0.890198	-0.057373	
1535	0.892639	0.00137329	
1536	0.890503	0.0601196	
1537	0.891724	0.0958252	
1538	0.891724	0.102997	
1539	0.894165	0.0952148	
1540	0.895081	0.0856018	
1541	0.895386	0.0738525	
1542	0.895691	0.065155	
1543	0.895386	0.0576782	
1544	0.895081	0.0509644	
1545	0.895386	0.0460815	
1546	0.895386	0.0396729	
1547	0.895081	0.0123596	
1548	0.895691	-0.037384	
1549	0.891418	-0.0904846	
1550	0.890198	-0.128479	
1551	0.891113	-0.142822	
1552	0.890503	-0.135498	
1553	0.891418	-0.105896	
1554	0.886841	-0.0567627	
1555	0.885315	0.00778198	
1556	0.88562	0.0679016	
1557	0.885925	0.102234	
1558	0.88562	0.106812	
1559	0.881348	0.0985718	
1560	0.880737	0.0849915	
1561	0.87738	0.0740051	
1562	0.875854	0.0694275	
1563	0.87616	0.0637817	
1564	0.872803	0.0569153	
1565	0.871582	0.0521851	
1566	0.867615	0.0447083	
1567	0.866089	0.0163269	
1568	0.866394	-0.0396729	
1569	0.863037	-0.0965881	
1570	0.861511	-0.133057	
1571	0.858154	-0.145721	
1572	0.857239	-0.141602	
1573	0.856018	-0.111542	
1574	0.855408	-0.0598145	
1575	0.852051	0.00549316	
1576	0.85083	0.0682068	
1577	0.848083	0.10437	
1578	0.845947	0.111237	
1579	0.846252	0.10498	
1580	0.842896	0.0941467	
1581	0.838928	0.0830078	
1582	0.841064	0.0752258	
1583	0.837097	0.0683594	
1584	0.836487	0.0627136	
1585	0.831604	0.0534058	
1586	0.828247	0.0401306	
1587	0.826721	0.00717163	
1588	0.826721	-0.0495911	
1589	0.823364	-0.110931	
1590	0.821228	-0.151978	
1591	0.819702	-0.167694	
1592	0.816956	-0.158997	
1593	0.81665	-0.121918	
1594	0.812378	-0.0627136	
1595	0.812073	0.00793457	
1596	0.808411	0.0756836	
1597	0.8078	0.114288	
1598	0.804138	0.120392	
1599	0.801697	0.110321	
1600	0.797729	0.0993347	
1601	0.797424	0.088501	
1602	0.797729	0.0805664	
1603	0.794067	0.0727844	
1604	0.791321	0.0637817	
1605	0.787659	0.0559998	
1606	0.787354	0.0450134	
1607	0.787659	0.0114441	
1608	0.786743	-0.0537109	
1609	0.783386	-0.118713	
1610	0.783081	-0.161896	
1611	0.779114	-0.176697	
1612	0.777893	-0.166473	
1613	0.777588	-0.132294	
1614	0.774841	-0.0723267	
1615	0.773621	0.00289917	
1616	0.773926	0.0738525	
1617	0.773621	0.114746	
1618	0.769958	0.122986	
1619	0.77179	0.116119	
1620	0.768433	0.104065	
1621	0.768127	0.0927734	
1622	0.768433	0.0801086	
1623	0.768127	0.0683594	
1624	0.767517	0.06073	
1625	0.768127	0.0553894	
1626	0.767212	0.0434875	
1627	0.76355	0.0050354	
1628	0.764465	-0.0660706	
1629	0.764465	-0.135956	
1630	0.76355	-0.182648	
1631	0.760803	-0.196838	
1632	0.762329	-0.183563	
1633	0.758667	-0.143585	
1634	0.758057	-0.0791931	
1635	0.7547	0.000610352	
1636	0.753784	0.0761414	
1637	0.757141	0.12146	
1638	0.754089	0.130005	
1639	0.753479	0.119324	
1640	0.753479	0.104675	
1641	0.750122	0.0909424	
1642	0.747986	0.0822449	
1643	0.748596	0.0753784	
1644	0.748291	0.0686646	
1645	0.748291	0.0628662	
1646	0.743408	0.0498962	
1647	0.743713	0.00747681	
1648	0.743103	-0.0669861	
1649	0.741577	-0.142517	
1650	0.739441	-0.190887	
1651	0.739136	-0.205383	
1652	0.738525	-0.192413	
1653	0.736694	-0.148926	
1654	0.734253	-0.0811768	
1655	0.734253	0.00335693	
1656	0.734253	0.0848389	
1657	0.733337	0.130463	
1658	0.732117	0.137939	
1659	0.72876	0.127106	
1660	0.72876	0.114746	
1661	0.729675	0.106506	
1662	0.72937	0.0971985	
1663	0.728455	0.085144	
1664	0.728149	0.0738525	
1665	0.729065	0.063324	
1666	0.726013	0.0491333	
1667	0.725098	0.00610352	
1668	0.724487	-0.0689697	
1669	0.722961	-0.146942	
1670	0.724182	-0.197906	
1671	0.724792	-0.21286	
1672	0.725098	-0.197601	
1673	0.724792	-0.153809	
1674	0.724487	-0.0863647	
1675	0.728149	-0.000915527	
1676	0.72876	0.0831604	
1677	0.72876	0.133057	
1678	0.728455	0.14267	
1679	0.729065	0.132141	
1680	0.729065	0.117645	
1681	0.72876	0.105438	
1682	0.72937	0.0965881	
1683	0.733337	0.0849915	
1684	0.730286	0.0749207	
1685	0.733032	0.065155	
1686	0.733643	0.0511169	
1687	0.731201	0.00595093	
1688	0.732117	-0.0743103	
1689	0.729065	-0.154724	
1690	0.729675	-0.208435	
1691	0.72876	-0.226593	
1692	0.731506	-0.215302	
1693	0.729065	-0.169525	
1694	0.729065	-0.0924683	
1695	0.731506	0.000610352	
1696	0.732117	0.085907	
1697	0.732422	0.136108	
1698	0.733643	0.147247	
1699	0.733643	0.137024	
1700	0.733948	0.121918	
1701	0.733643	0.108337	
1702	0.734253	0.0956726	
1703	0.733948	0.0857544	
1704	0.733948	0.0775146	
1705	0.733643	0.070343	
1706	0.733643	0.0561523	
1707	0.733948	0.00793457	
1708	0.733643	-0.0775146	
1709	0.734253	-0.165405	
1710	0.733643	-0.22049	
1711	0.733948	-0.236053	
1712	0.733643	-0.224915	
1713	0.733643	-0.180664	
1714	0.733337	-0.104828	
1715	0.733948	-0.00579834	
1716	0.733643	0.0923157	
1717	0.734253	0.152283	
1718	0.734253	0.163727	
1719	0.734253	0.150909	
1720	0.733337	0.133514	
1721	0.733643	0.117035	
1722	0.733643	0.103149	
1723	0.734253	0.0927734	
1724	0.733948	0.0830078	
1725	0.731506	0.0733948	
1726	0.732117	0.0561523	
1727	0.731506	0.00549316	
1728	0.72937	-0.0842285	
1729	0.729675	-0.173645	
1730	0.728455	-0.231934	
1731	0.72876	-0.25177	
1732	0.72876	-0.236969	
1733	0.726013	-0.189362	
1734	0.727539	-0.105286	
1735	0.724792	-0.000610352	
1736	0.724182	0.0996399	
1737	0.724182	0.156555	
1738	0.723572	0.166321	
1739	0.724182	0.153809	
1740	0.723877	0.136108	
1741	0.724487	0.119019	
1742	0.72052	0.105438	
1743	0.722046	0.0932312	
1744	0.719604	0.083313	
1745	0.718079	0.0779724	
1746	0.716858	0.065155	
1747	0.714722	0.0134277	
1748	0.713196	-0.0823975	
1749	0.710144	-0.180511	
1750	0.708923	-0.240936	
1751	0.709229	-0.259247	
1752	0.705872	-0.243683	
1753	0.704956	-0.192413	
1754	0.704651	-0.107422	
1755	0.703735	-0.00198364	
1756	0.699768	0.100555	
1757	0.699463	0.162659	
1758	0.696106	0.176392	
1759	0.69519	0.166168	
1760	0.694885	0.150146	
1761	0.69397	0.137482	
1762	0.690002	0.126648	
1763	0.689392	0.114594	
1764	0.683899	0.100098	
1765	0.684204	0.0871277	
1766	0.680542	0.068512	
1767	0.679932	0.0166321	
1768	0.67627	-0.0761414	
1769	0.674438	-0.16983	
1770	0.670471	-0.236816	
1771	0.669556	-0.258789	
1772	0.666504	-0.246124	
1773	0.662231	-0.197144	
1774	0.661621	-0.109406	
1775	0.656738	0.0012207	
1776	0.654907	0.106506	
1777	0.652466	0.171814	
1778	0.65155	0.188446	
1779	0.650635	0.177002	
1780	0.646973	0.159454	
1781	0.645142	0.144958	
1782	0.640869	0.133514	
1783	0.640869	0.122375	
1784	0.639648	0.112	
1785	0.635071	0.102234	
1786	0.630798	0.08255	
1787	0.627747	0.0263977	
1788	0.625916	-0.0721741	
1789	0.622559	-0.174561	
1790	0.621948	-0.242157	
1791	0.618286	-0.264435	
1792	0.61676	-0.249786	
1793	0.612793	-0.197144	
1794	0.611877	-0.104675	
1795	0.611267	0.0112915	
1796	0.606995	0.124969	
1797	0.606995	0.196075	
1798	0.603638	0.213013	
1799	0.602112	0.203247	
1800	0.59845	0.183868	
1801	0.596313	0.167084	
1802	0.592346	0.153961	
1803	0.592041	0.142059	
1804	0.588379	0.129089	
1805	0.586853	0.114746	
1806	0.583191	0.0918579	
1807	0.58197	0.0312805	
1808	0.578613	-0.0723267	
1809	0.577087	-0.176544	
1810	0.57373	-0.246735	
1811	0.571899	-0.271301	
1812	0.567322	-0.257111	
1813	0.566406	-0.198822	
1814	0.563049	-0.101624	
1815	0.561829	0.0192261	
1816	0.558472	0.136719	
1817	0.556641	0.208893	
1818	0.552673	0.228119	
1819	0.552063	0.219116	
1820	0.548096	0.200348	
1821	0.544128	0.183868	
1822	0.542603	0.170441	
1823	0.542297	0.157318	
1824	0.538025	0.142822	
1825	0.534058	0.12619	
1826	0.532532	0.101318	
1827	0.527954	0.0378418	
1828	0.523376	-0.0718689	
1829	0.522766	-0.182495	
1830	0.517883	-0.252838	
1831	0.513611	-0.274506	
1832	0.509949	-0.263214	
1833	0.508728	-0.210876	
1834	0.503845	-0.116119	
1835	0.499878	0.00488281	
1836	0.498047	0.121307	
1837	0.49408	0.191193	
1838	0.492859	0.205231	
1839	0.488892	0.190125	
1840	0.484314	0.167389	
1841	0.480652	0.149689	
1842	0.477905	0.134277	
1843	0.474548	0.116882	
1844	0.470581	0.0975037	
1845	0.468445	0.0778198	
1846	0.465088	0.0520325	
1847	0.461426	-0.0135803	
1848	0.459595	-0.12558	
1849	0.456543	-0.237885	
1850	0.451965	-0.312653	
1851	0.450745	-0.335541	
1852	0.446472	-0.319366	
1853	0.441589	-0.259857	
1854	0.439148	-0.160522	
1855	0.435791	-0.0346375	
1856	0.432129	0.090332	
1857	0.429077	0.168457	
1858	0.425415	0.187378	
1859	0.42511	0.17334	
1860	0.419617	0.153961	
1861	0.415649	0.137177	
1862	0.415039	0.126495	
1863	0.411072	0.112915	
1864	0.407104	0.100098	
1865	0.405273	0.0849915	
1866	0.401306	0.0619507	
1867	0.396118	-0.00396729	
1868	0.395203	-0.119171	
1869	0.386963	-0.23819	
1870	0.385742	-0.319214	
1871	0.381165	-0.345612	
1872	0.377502	-0.328522	
1873	0.375366	-0.262756	
1874	0.371094	-0.155487	
1875	0.366516	-0.0212097	
1876	0.363159	0.106506	
1877	0.361633	0.182953	
1878	0.358276	0.200348	
1879	0.353088	0.18692	
1880	0.351868	0.166321	
1881	0.3479	0.149231	
1882	0.342407	0.136261	
1883	0.341187	0.120087	
1884	0.337524	0.104523	
1885	0.336304	0.090332	
1886	0.332642	0.0683594	
1887	0.328064	0.00427246	
1888	0.323486	-0.114288	
1889	0.322571	-0.237579	
1890	0.318604	-0.319061	
1891	0.317383	-0.347443	
1892	0.317078	-0.330505	
1893	0.3125	-0.269012	
1894	0.312195	-0.160217	
1895	0.308228	-0.0230408	
1896	0.30365	0.109253	
1897	0.30304	0.190735	
1898	0.299683	0.210114	
1899	0.296631	0.19928	
1900	0.297241	0.183411	
1901	0.2948	0.169373	
1902	0.292053	0.160675	
1903	0.288696	0.155182	
1904	0.287476	0.148621	
1905	0.283813	0.13916	
1906	0.279541	0.118866	
1907	0.274963	0.0520325	
1908	0.273438	-0.0668335	
1909	0.266724	-0.187988	
1910	0.263062	-0.26535	
1911	0.26062	-0.285797	
1912	0.255737	-0.259552	
1913	0.250854	-0.187378	
1914	0.248108	-0.0639343	
1915	0.244141	0.0907898	
1916	0.240479	0.244904	
1917	0.235596	0.345306	
1918	0.233459	0.380707	
1919	0.228882	0.381317	
1920	0.224915	0.371094	
1921	0.220337	0.36026	
1922	0.21637	0.349884	
1923	0.213318	0.339813	
1924	0.209656	0.330658	
1925	0.204773	0.315094	
1926	0.19989	0.289612	
1927	0.195923	0.223083	
1928	0.19165	0.102844	
1929	0.186768	-0.027771	
1930	0.184326	-0.118408	
1931	0.176697	-0.150299	
1932	0.172729	-0.137787	
1933	0.171509	-0.0796509	
1934	0.167236	0.0242615	
1935	0.1651	0.15686	
1936	0.160217	0.277557	
1937	0.15564	0.336761	
1938	0.151978	0.32608	
1939	0.150757	0.278473	
1940	0.144958	0.220032	
1941	0.140686	0.162048	
1942	0.139465	0.114136	
1943	0.135803	0.0802612	
1944	0.131836	0.0553894	
1945	0.128479	0.0317383	
1946	0.122681	0.00213623	
1947	0.120544	-0.0758362	
1948	0.117798	-0.209961	
1949	0.11322	-0.345459	
1950	0.108337	-0.434418	
1951	0.103149	-0.46936	
1952	0.101013	-0.463715	
1953	0.0976563	-0.411835	
1954	0.0964355	-0.31189	
1955	0.088501	-0.179749	
1956	0.0839233	-0.0552368	
1957	0.0817871	0.0112915	
1958	0.0787354	0.0172424	
1959	0.0772095	-0.000152588	
1960	0.0698853	-0.0169373	
1961	0.067749	-0.0267029	
1962	0.0650024	-0.0291443	
1963	0.0628662	-0.0245667	
1964	0.0582886	-0.0175476	
1965	0.0552368	-0.0128174	
1966	0.0537109	-0.020752	
1967	0.0488281	-0.0778198	
1968	0.0457764	-0.194397	
1969	0.0439453	-0.315857	
1970	0.0408936	-0.396729	
1971	0.0387573	-0.419006	
1972	0.038147	-0.391846	
1973	0.0341797	-0.313263	
1974	0.0335693	-0.186768	
1975	0.0283813	-0.0309753	
1976	0.0256348	0.117188	
1977	0.0241089	0.210114	
1978	0.0210571	0.236969	
1979	0.0192261	0.226288	
1980	0.0183105	0.204773	
1981	0.0161743	0.183411	
1982	0.0137329	0.164948	
1983	0.00946045	0.149536	
1984	0.0088501	0.131531	
1985	0.00152588	0.112152	
1986	-0.000305176	0.0820923	
1987	-0.000610352	0.00289917	
1988	-0.00579834	-0.134583	
1989	-0.00946045	-0.276489	
1990	-0.0137329	-0.370178	
1991	-0.015564	-0.400848	
1992	-0.0195313	-0.382843	
1993	-0.0247192	-0.311584	
1994	-0.0259399	-0.185089	
1995	-0.0289917	-0.020752	
1996	-0.0335693	0.135651	
1997	-0.0360107	0.233459	
1998	-0.0390625	0.26001	
1999	-0.0448608	0.250244	
2000	-0.0485229	0.227966	
2001	-0.0531006	0.207672	
2002	-0.0549316	0.189667	
2003	-0.0582886	0.171814	
2004	-0.062561	0.155945	
2005	-0.0668335	0.139313	
2006	-0.0692749	0.112457	
2007	-0.0720215	0.0315857	
2008	-0.0769043	-0.109406	
2009	-0.0790405	-0.250549	
2010	-0.0827026	-0.346069	
2011	-0.0866699	-0.380402	
2012	-0.0918579	-0.364532	
2013	-0.0927734	-0.289612	
2014	-0.0967407	-0.159607	
2015	-0.098877	0.00549316	
2016	-0.102539	0.167847	
2017	-0.103149	0.26947	
2018	-0.106812	0.294342	
2019	-0.111389	0.279694	
2020	-0.11322	0.252228	
2021	-0.116577	0.230255	
2022	-0.118408	0.215149	
2023	-0.122986	0.197449	
2024	-0.126953	0.17746	
2025	-0.13092	0.157471	
2026	-0.133057	0.124817	
2027	-0.139771	0.037384	
2028	-0.140686	-0.110168	
2029	-0.142822	-0.262451	
2030	-0.146484	-0.364685	
2031	-0.14801	-0.398254	
2032	-0.151367	-0.378876	
2033	-0.156555	-0.302277	
2034	-0.156555	-0.16922	
2035	-0.160217	-0.000457764	
2036	-0.162354	0.167847	
2037	-0.166321	0.27298	
2038	-0.168762	0.302277	
2039	-0.169678	0.29068	
2040	-0.171814	0.268707	
2041	-0.175781	0.245209	
2042	-0.178833	0.223999	
2043	-0.180664	0.203247	
2044	-0.184326	0.181122	
2045	-0.188904	0.16037	
2046	-0.190735	0.127258	
2047	-0.194397	0.039978	
2048	-0.2005	-0.115814	
2049	-0.204773	-0.276337	
2050	-0.208435	-0.382538	
2051	-0.211182	-0.419617	
2052	-0.216064	-0.400391	
2053	-0.219421	-0.31723	
2054	-0.224304	-0.175629	
2055	-0.229797	0.00534058	
2056	-0.232544	0.183411	
2057	-0.237427	0.293427	
2058	-0.24353	0.319214	
2059	-0.245056	0.302887	
2060	-0.249939	0.278778	
2061	-0.254822	0.259399	
2062	-0.257874	0.242462	
2063	-0.263062	0.224762	
2064	-0.265198	0.203552	
2065	-0.268555	0.181427	
2066	-0.273132	0.1474	
2067	-0.278931	0.0540161	
2068	-0.282288	-0.109863	
2069	-0.28717	-0.276642	
2070	-0.289307	-0.391388	
2071	-0.294189	-0.433807	
2072	-0.29541	-0.412903	
2073	-0.302124	-0.326538	
2074	-0.30426	-0.175323	
2075	-0.308838	0.0180054	
2076	-0.310364	0.209351	
2077	-0.314331	0.330353	
2078	-0.317383	0.365295	
2079	-0.321045	0.353546	
2080	-0.322876	0.327606	
2081	-0.326538	0.301514	
2082	-0.331421	0.280457	
2083	-0.332642	0.258026	
2084	-0.336914	0.237427	
2085	-0.340576	0.215759	
2086	-0.343933	0.180664	
2087	-0.3479	0.0811768	
2088	-0.351257	-0.0883484	
2089	-0.355225	-0.263519	
2090	-0.357666	-0.383759	
2091	-0.361328	-0.426483	
2092	-0.365601	-0.405121	
2093	-0.367737	-0.313263	
2094	-0.372314	-0.152893	
2095	-0.377502	0.0495911	
2096	-0.378418	0.249939	
2097	-0.385437	0.37735	
2098	-0.390625	0.411835	
2099	-0.391541	0.392456	
2100	-0.394897	0.361938	
2101	-0.397034	0.335541	
2102	-0.402222	0.31601	
2103	-0.406189	0.298462	
2104	-0.409241	0.275879	
2105	-0.411682	0.249634	
2106	-0.416565	0.211029	
2107	-0.420532	0.107574	
2108	-0.4245	-0.0744629	
2109	-0.429077	-0.264282	
2110	-0.434875	-0.392761	
2111	-0.437927	-0.436096	
2112	-0.439148	-0.413818	
2113	-0.441284	-0.318604	
2114	-0.449219	-0.152283	
2115	-0.450134	0.0645447	
2116	-0.453186	0.277252	
2117	-0.458984	0.411072	
2118	-0.462952	0.448303	
2119	-0.464478	0.432281	
2120	-0.46875	0.401764	
2121	-0.473328	0.372162	
2122	-0.475769	0.351715	
2123	-0.480347	0.329285	
2124	-0.484314	0.302887	
2125	-0.488281	0.275879	
2126	-0.492554	0.236206	
2127	-0.497131	0.127411	
2128	-0.498962	-0.0674438	
2129	-0.50354	-0.274048	
2130	-0.507202	-0.417175	
2131	-0.513	-0.469055	
2132	-0.513916	-0.442657	
2133	-0.516968	-0.334778	
2134	-0.522461	-0.154114	
2135	-0.523987	0.0747681	
2136	-0.527344	0.301208	
2137	-0.531921	0.440063	
2138	-0.533752	0.472717	
2139	-0.53772	0.449982	
2140	-0.53833	0.416412	
2141	-0.540466	0.387115	
2142	-0.543213	0.36377	
2143	-0.544434	0.33905	
2144	-0.547791	0.310364	
2145	-0.547791	0.280304	
2146	-0.547485	0.232086	
2147	-0.547791	0.110779	
2148	-0.548401	-0.0994873	
2149	-0.548096	-0.31723	
2150	-0.548096	-0.463715	
2151	-0.547791	-0.517426	
2152	-0.547791	-0.491638	
2153	-0.547485	-0.38147	
2154	-0.544128	-0.193176	
2155	-0.539856	0.0482178	
2156	-0.53772	0.288696	
2157	-0.534058	0.437317	
2158	-0.532837	0.472717	
2159	-0.528564	0.448151	
2160	-0.523682	0.409393	
2161	-0.518188	0.374756	
2162	-0.513916	0.346527	
2163	-0.509033	0.317993	
2164	-0.50415	0.286102	
2165	-0.503235	0.251617	
2166	-0.495605	0.201721	
2167	-0.489197	0.0727844	
2168	-0.484314	-0.152283	
2169	-0.476685	-0.381317	
2170	-0.470886	-0.534515	
2171	-0.461121	-0.591583	
2172	-0.454712	-0.567627	
2173	-0.446472	-0.45639	
2174	-0.437317	-0.260162	
2175	-0.431519	-0.0100708	
2176	-0.422363	0.23941	
2177	-0.412598	0.394592	
2178	-0.402222	0.431213	
2179	-0.392761	0.40741	
2180	-0.383301	0.368958	
2181	-0.372925	0.334167	
2182	-0.363159	0.304871	
2183	-0.353394	0.273438	
2184	-0.340576	0.239105	
2185	-0.328674	0.20462	
2186	-0.319214	0.155792	
2187	-0.308838	0.0218201	
2188	-0.296021	-0.211334	
2189	-0.28595	-0.451965	
2190	-0.275574	-0.617523	
2191	-0.264587	-0.679169	
2192	-0.250854	-0.654907	
2193	-0.240173	-0.537109	
2194	-0.225525	-0.332642	
2195	-0.212402	-0.0691223	
2196	-0.200806	0.193329	
2197	-0.187378	0.360565	
2198	-0.17395	0.403595	
2199	-0.162659	0.380554	
2200	-0.148621	0.342102	
2201	-0.13855	0.305634	
2202	-0.123291	0.272827	
2203	-0.108643	0.238953	
2204	-0.0942993	0.206299	
2205	-0.0799561	0.170135	
2206	-0.0692749	0.11734	
2207	-0.0546265	-0.0227356	
2208	-0.0405884	-0.266418	
2209	-0.0299072	-0.515442	
2210	-0.0152588	-0.681	
2211	0.00183105	-0.738373	
2212	0.0131226	-0.708923	
2213	0.0274658	-0.588379	
2214	0.0427246	-0.378571	
2215	0.0579834	-0.102386	
2216	0.0720215	0.175781	
2217	0.0875854	0.351257	
2218	0.100708	0.396423	
2219	0.115967	0.377655	
2220	0.13031	0.339508	
2221	0.145569	0.301666	
2222	0.161133	0.273438	
2223	0.174255	0.243988	
2224	0.189209	0.212402	
2225	0.204468	0.177765	
2226	0.218201	0.122681	
2227	0.232544	-0.0236511	
2228	0.247498	-0.272827	
2229	0.260925	-0.530396	
2230	0.273438	-0.704956	
2231	0.287781	-0.769653	
2232	0.302124	-0.742188	
2233	0.315552	-0.612488	
2234	0.328979	-0.386963	
2235	0.344238	-0.100555	
2236	0.356445	0.183563	
2237	0.370789	0.364838	
2238	0.384521	0.415344	
2239	0.398254	0.39505	
2240	0.410156	0.356903	
2241	0.424194	0.320892	
2242	0.437622	0.290833	
2243	0.448608	0.258942	
2244	0.462036	0.219574	
2245	0.473633	0.177307	
2246	0.483704	0.114136	
2247	0.497131	-0.0408936	
2248	0.506897	-0.303497	
2249	0.518799	-0.571136	
2250	0.530396	-0.751648	
2251	0.541992	-0.818176	
2252	0.551453	-0.786133	
2253	0.562439	-0.649109	
2254	0.575256	-0.412598	
2255	0.586853	-0.1091	
2256	0.59845	0.189972	
2257	0.608521	0.378723	
2258	0.61676	0.433044	
2259	0.629272	0.41626	
2260	0.63446	0.378418	
2261	0.644531	0.340271	
2262	0.653992	0.310364	
2263	0.664063	0.278473	
2264	0.673523	0.23819	
2265	0.681458	0.189209	
2266	0.692139	0.119476	
2267	0.698242	-0.0422668	
2268	0.703735	-0.315247	
2269	0.71228	-0.591736	
2270	0.718384	-0.780182	
2271	0.727539	-0.849304	
2272	0.733337	-0.81665	
2273	0.741272	-0.674591	
2274	0.747375	-0.428467	
2275	0.753479	-0.11261	
2276	0.760803	0.199127	
2277	0.767517	0.400543	
2278	0.77301	0.463715	
2279	0.780945	0.449829	
2280	0.785828	0.413055	
2281	0.791321	0.374756	
2282	0.795898	0.339813	
2283	0.801697	0.300446	
2284	0.806274	0.252838	
2285	0.811157	0.199127	
2286	0.81665	0.12146	
2287	0.820007	-0.0517273	
2288	0.82489	-0.340118	
2289	0.826721	-0.635071	
2290	0.830994	-0.836334	
2291	0.837708	-0.910339	
2292	0.841675	-0.878448	
2293	0.845947	-0.734711	
2294	0.848083	-0.479736	
2295	0.852051	-0.150604	
2296	0.856018	0.176086	
2297	0.860596	0.390472	
2298	0.865173	0.461731	
2299	0.867004	0.451355	
2300	0.871277	0.41275	
2301	0.874329	0.372467	
2302	0.87677	0.33844	
2303	0.880737	0.296936	
2304	0.884094	0.240784	
2305	0.88623	0.175934	
2306	0.888062	0.0843811	
2307	0.889893	-0.103149	
2308	0.890808	-0.409546	
2309	0.890808	-0.749664	
2310	0.894775	-0.990601	
2311	0.895691	-1.02463	
2312	0.895386	-0.944519	
2313	0.896301	-0.744629	
2314	0.900269	-0.444641	
2315	0.901184	-0.0956726	
2316	0.901794	0.205078	
2317	0.904541	0.363464	
2318	0.904846	0.406952	
2319	0.905457	0.399017	
2320	0.906067	0.367584	
2321	0.906372	0.32135	
2322	0.909424	0.263672	
2323	0.910645	0.185089	
2324	0.906982	0.085144	
2325	0.909424	-0.0323486	
2326	0.906067	-0.210724	
2327	0.905457	-0.518188	
2328	0.905151	-0.887909	
2329	0.904846	-1.19873	
2330	0.904541	-1.3765	
2331	0.904236	-1.4238	
2332	0.901794	-1.34628	
2333	0.903015	-1.13251	
2334	0.904236	-0.807648	
2335	0.901794	-0.432434	
2336	0.900574	-0.107117	
2337	0.900269	0.0709534	
2338	0.900879	0.125732	
2339	0.901794	0.125275	
2340	0.900879	0.106964	
2341	0.900574	0.0820923	
2342	0.900574	0.0483704	
2343	0.900269	-0.0062561	
2344	0.900574	-0.087738	
2345	0.900574	-0.189056	
2346	0.896912	-0.353241	
2347	0.895081	-0.649109	
2348	0.895691	-1.01013	
2349	0.894775	-1.31088	
2350	0.89325	-1.47247	
2351	0.891113	-1.49887	
2352	0.890198	-1.39526	
2353	0.890503	-1.15417	
2354	0.890808	-0.794067	
2355	0.887451	-0.382843	
2356	0.890808	-0.0260925	
2357	0.887451	0.176086	
2358	0.88623	0.24353	
2359	0.88562	0.250702	
2360	0.885925	0.235901	
2361	0.88562	0.209198	
2362	0.88562	0.168915	
2363	0.88623	0.107117	
2364	0.885925	0.0236511	
2365	0.882263	-0.0764465	
2366	0.881042	-0.239258	
2367	0.880127	-0.544434	
2368	0.880127	-0.921631	
2369	0.87677	-1.23688	
2370	0.875854	-1.40762	
2371	0.872192	-1.43188	
2372	0.871277	-1.32492	
2373	0.871582	-1.07468	
2374	0.86792	-0.707703	
2375	0.866089	-0.282745	
2376	0.862122	0.0875854	
2377	0.860901	0.298767	
2378	0.857544	0.376587	
2379	0.855713	0.389099	
2380	0.853577	0.378723	
2381	0.85144	0.357666	
2382	0.85022	0.314941	
2383	0.846863	0.245056	
2384	0.842896	0.15213	
2385	0.84137	0.0393677	
2386	0.840759	-0.136871	
2387	0.841064	-0.455627	
2388	0.836487	-0.842438	
2389	0.832825	-1.16455	
2390	0.828247	-1.33377	
2391	0.826111	-1.35818	
2392	0.819702	-1.24969	
2393	0.818176	-0.993805	
2394	0.813293	-0.613861	
2395	0.812073	-0.175476	
2396	0.808411	0.199585	
2397	0.80658	0.410919	
2398	0.802002	0.486755	
2399	0.798645	0.494232	
2400	0.796204	0.476532	
2401	0.792236	0.451202	
2402	0.788269	0.409851	
2403	0.787048	0.340729	
2404	0.783386	0.241241	
2405	0.78186	0.121002	
2406	0.777283	-0.0627136	
2407	0.773621	-0.390472	
2408	0.7724	-0.789795	
2409	0.768127	-1.11877	
2410	0.76355	-1.29242	
2411	0.760193	-1.31973	
2412	0.758362	-1.20941	
2413	0.753784	-0.948639	
2414	0.753479	-0.557709	
2415	0.750427	-0.109253	
2416	0.748596	0.279541	
2417	0.743713	0.492401	
2418	0.742798	0.563354	
2419	0.738525	0.565033	
2420	0.737915	0.536804	
2421	0.734253	0.500488	
2422	0.733032	0.453033	
2423	0.729065	0.378571	
2424	0.725403	0.27832	
2425	0.724182	0.156708	
2426	0.720825	-0.0215149	
2427	0.718994	-0.348816	
2428	0.714417	-0.754547	
2429	0.710754	-1.09238	
2430	0.709534	-1.26968	
2431	0.705872	-1.29318	
2432	0.700684	-1.17798	
2433	0.699158	-0.91217	
2434	0.695496	-0.523682	
2435	0.693665	-0.0744629	
2436	0.690613	0.31189	
2437	0.689087	0.523529	
2438	0.685425	0.589294	
2439	0.685425	0.586853	
2440	0.682068	0.559387	
2441	0.681458	0.523834	
2442	0.679932	0.478973	
2443	0.679016	0.405426	
2444	0.676575	0.305939	
2445	0.674438	0.187073	
2446	0.674744	0.00518799	
2447	0.670776	-0.323944	
2448	0.670166	-0.724335	
2449	0.666809	-1.05545	
2450	0.664673	-1.22833	
2451	0.661621	-1.24878	
2452	0.6604	-1.12915	
2453	0.657349	-0.866241	
2454	0.655823	-0.482635	
2455	0.655212	-0.0430298	
2456	0.654907	0.336456	
2457	0.654907	0.54306	
2458	0.655212	0.610352	
2459	0.655823	0.612488	
2460	0.654907	0.58609	
2461	0.654297	0.548859	
2462	0.654602	0.498505	
2463	0.65094	0.424957	
2464	0.650024	0.327911	
2465	0.650024	0.211945	
2466	0.647583	0.03479	
2467	0.646667	-0.274658	
2468	0.645752	-0.650635	
2469	0.645142	-0.960236	
2470	0.641785	-1.11847	
2471	0.641174	-1.13617	
2472	0.640869	-1.02219	
2473	0.640564	-0.771027	
2474	0.640869	-0.405731	
2475	0.640869	0.0132751	
2476	0.637512	0.367889	
2477	0.635986	0.565643	
2478	0.637207	0.632019	
2479	0.635071	0.632629	
2480	0.635071	0.606232	
2481	0.634766	0.569763	
2482	0.631409	0.521545	
2483	0.630798	0.44693	
2484	0.631104	0.345764	
2485	0.630493	0.232544	
2486	0.629272	0.0636292	
2487	0.626526	-0.23407	
2488	0.625916	-0.591736	
2489	0.623169	-0.883942	
2490	0.622253	-1.03317	
2491	0.621338	-1.04675	
2492	0.621033	-0.934448	
2493	0.617676	-0.683441	
2494	0.616455	-0.320435	
2495	0.616455	0.0938416	
2496	0.616455	0.448151	
2497	0.61615	0.647278	
2498	0.61615	0.715942	
2499	0.612793	0.722961	
2500	0.611267	0.706024	
2501	0.612183	0.670624	
2502	0.611572	0.614166	
2503	0.611267	0.536346	
2504	0.611572	0.441284	
2505	0.611877	0.33493	
2506	0.608521	0.173798	
2507	0.606384	-0.115814	
2508	0.603333	-0.467224	
2509	0.601501	-0.753326	
2510	0.601807	-0.897675	
2511	0.600891	-0.908203	
2512	0.596924	-0.800323	
2513	0.596924	-0.570831	
2514	0.597229	-0.238953	
2515	0.597229	0.128021	
2516	0.593567	0.427399	
2517	0.591736	0.57251	
2518	0.592041	0.602875	
2519	0.59082	0.582733	
2520	0.590515	0.544434	
2521	0.591736	0.501862	
2522	0.586853	0.454407	
2523	0.586853	0.388947	
2524	0.587769	0.308533	
2525	0.583496	0.21286	
2526	0.581665	0.0637817	
2527	0.582275	-0.204315	
2528	0.578613	-0.52948	
2529	0.576782	-0.794373	
2530	0.57373	-0.923615	
2531	0.57251	-0.923462	
2532	0.571594	-0.820618	
2533	0.568237	-0.60379	
2534	0.567017	-0.289001	
2535	0.563049	0.0654602	
2536	0.562439	0.35965	
2537	0.559387	0.507355	
2538	0.554504	0.535736	
2539	0.554199	0.51239	
2540	0.552673	0.47226	
2541	0.552368	0.432434	
2542	0.552063	0.387268	
2543	0.548706	0.327606	
2544	0.548706	0.256348	
2545	0.545044	0.184021	
2546	0.543823	0.0634766	
2547	0.543518	-0.179443	
2548	0.541992	-0.48233	
2549	0.53833	-0.736084	
2550	0.538025	-0.864105	
2551	0.534363	-0.874481	
2552	0.532532	-0.779266	
2553	0.533142	-0.572662	
2554	0.532532	-0.273438	
2555	0.528564	0.0663757	
2556	0.527649	0.349426	
2557	0.528564	0.486145	
2558	0.524902	0.510559	
2559	0.523071	0.485382	
2560	0.520325	0.447998	
2561	0.519714	0.413055	
2562	0.518494	0.374603	
2563	0.518494	0.321808	
2564	0.515442	0.260468	
2565	0.513611	0.194092	
2566	0.510254	0.0802612	
2567	0.508118	-0.158234	
2568	0.507202	-0.462036	
2569	0.503845	-0.712585	
2570	0.50354	-0.835571	
2571	0.499878	-0.845795	
2572	0.499268	-0.759277	
2573	0.494995	-0.560455	
2574	0.493469	-0.26886	
2575	0.493164	0.0570679	
2576	0.488892	0.330963	
2577	0.489197	0.462952	
2578	0.488281	0.478058	
2579	0.486755	0.446472	
2580	0.483704	0.406494	
2581	0.484009	0.37262	
2582	0.480347	0.340271	
2583	0.478821	0.298462	
2584	0.475464	0.246582	
2585	0.474243	0.186768	
2586	0.470886	0.0773621	
2587	0.46936	-0.148163	
2588	0.468445	-0.436859	
2589	0.465393	-0.67627	
2590	0.461121	-0.800476	
2591	0.4599	-0.815887	
2592	0.456543	-0.728149	
2593	0.451355	-0.531921	
2594	0.449524	-0.245514	
2595	0.446167	0.0767517	
2596	0.445557	0.345612	
2597	0.441895	0.476227	
2598	0.440063	0.495605	
2599	0.436401	0.468445	
2600	0.434265	0.432129	
2601	0.430603	0.394135	
2602	0.426941	0.353851	
2603	0.4245	0.30838	
2604	0.420837	0.261383	
2605	0.419617	0.206604	
2606	0.415344	0.101013	
2607	0.411682	-0.12085	
2608	0.410767	-0.406494	
2609	0.406799	-0.6427	
2610	0.404663	-0.765228	
2611	0.398254	-0.773926	
2612	0.397339	-0.68222	
2613	0.394592	-0.486298	
2614	0.391541	-0.206146	
2615	0.390625	0.1091	
2616	0.389709	0.367432	
2617	0.385742	0.486603	
2618	0.383606	0.499878	
2619	0.38208	0.468903	
2620	0.379944	0.430908	
2621	0.376587	0.396271	
2622	0.372314	0.363922	
2623	0.369263	0.323944	
2624	0.366516	0.272675	
2625	0.361938	0.216064	
2626	0.361633	0.114594	
2627	0.360107	-0.103607	
2628	0.356445	-0.384064	
2629	0.351257	-0.620422	
2630	0.350037	-0.741882	
2631	0.346375	-0.752563	
2632	0.340881	-0.665894	
2633	0.336304	-0.477753	
2634	0.332642	-0.205078	
2635	0.328064	0.103607	
2636	0.325928	0.363312	
2637	0.318909	0.485535	
2638	0.316467	0.497284	
2639	0.313416	0.464172	
2640	0.311584	0.426636	
2641	0.307007	0.396729	
2642	0.302124	0.368805	
2643	0.2948	0.331268	
2644	0.293274	0.287323	
2645	0.289307	0.234985	
2646	0.283813	0.13382	
2647	0.279236	-0.0836182	
2648	0.273438	-0.359955	
2649	0.26886	-0.592041	
2650	0.264893	-0.708618	
2651	0.26001	-0.721436	
2652	0.255432	-0.643616	
2653	0.25116	-0.46051	
2654	0.245667	-0.187836	
2655	0.240479	0.11795	
2656	0.235901	0.366211	
2657	0.230408	0.479736	
2658	0.227966	0.492859	
2659	0.224609	0.465851	
2660	0.219116	0.426331	
2661	0.215454	0.3862	
2662	0.211487	0.346985	
2663	0.205994	0.303192	
2664	0.202026	0.255737	
2665	0.196228	0.201874	
2666	0.191345	0.103607	
2667	0.187073	-0.108643	
2668	0.18158	-0.381622	
2669	0.177002	-0.607605	
2670	0.170593	-0.726624	
2671	0.166016	-0.744019	
2672	0.162048	-0.668945	
2673	0.157776	-0.492401	
2674	0.151978	-0.227051	
2675	0.149841	0.0723267	
2676	0.143738	0.320892	
2677	0.142517	0.435181	
2678	0.137634	0.444946	
2679	0.132751	0.416565	
2680	0.127869	0.381317	
2681	0.126038	0.349579	
2682	0.121155	0.31723	
2683	0.116577	0.280304	
2684	0.111084	0.236053	
2685	0.107117	0.187073	
2686	0.101929	0.093689	
2687	0.0967407	-0.115814	
2688	0.0915527	-0.38681	
2689	0.0869751	-0.613403	
2690	0.0823975	-0.732422	
2691	0.0775146	-0.745239	
2692	0.0741577	-0.66452	
2693	0.0662231	-0.480347	
2694	0.0637817	-0.215149	
2695	0.0595093	0.083313	
2696	0.0546265	0.331573	
2697	0.0500488	0.446167	
2698	0.0473022	0.453796	
2699	0.0439453	0.419312	
2700	0.039978	0.379486	
2701	0.0354004	0.346222	
2702	0.0332642	0.315094	
2703	0.0296021	0.280457	
2704	0.0262451	0.238647	
2705	0.0231934	0.190887	
2706	0.0186157	0.0970459	
2707	0.0143433	-0.113068	
2708	0.0106812	-0.382233	
2709	0.00946045	-0.609894	
2710	0.00396729	-0.727234	
2711	-0.000915527	-0.738831	
2712	-0.00457764	-0.658112	
2713	-0.00579834	-0.478821	
2714	-0.0128174	-0.21759	
2715	-0.0143433	0.0784302	
2716	-0.0180054	0.323486	
2717	-0.0231934	0.436554	
2718	-0.0244141	0.444946	
2719	-0.027771	0.413361	
2720	-0.0302124	0.377808	
2721	-0.0344849	0.346985	
2722	-0.0372314	0.312958	
2723	-0.0402832	0.276947	
2724	-0.0436401	0.236816	
2725	-0.0485229	0.196991	
2726	-0.0534058	0.111542	
2727	-0.0570679	-0.0917053	
2728	-0.0622559	-0.361633	
2729	-0.0646973	-0.583801	
2730	-0.0717163	-0.693054	
2731	-0.0747681	-0.696564	
2732	-0.0787354	-0.607605	
2733	-0.0836182	-0.42511	
2734	-0.0839233	-0.158386	
2735	-0.088501	0.144348	
2736	-0.0939941	0.396271	
2737	-0.0979614	0.519409	
2738	-0.10498	0.535889	
2739	-0.107422	0.511627	
2740	-0.111389	0.484314	
2741	-0.115967	0.462189	
2742	-0.118408	0.44754	
2743	-0.123291	0.428467	
2744	-0.13031	0.405273	
2745	-0.133057	0.371399	
2746	-0.140686	0.289459	
2747	-0.142517	0.093689	
2748	-0.149841	-0.166931	
2749	-0.152283	-0.392151	
2750	-0.157776	-0.508423	
2751	-0.162659	-0.518951	
2752	-0.169373	-0.439453	
2753	-0.172119	-0.257416	
2754	-0.179138	0.01297	
2755	-0.182495	0.314331	
2756	-0.186462	0.556946	
2757	-0.192566	0.667267	
2758	-0.195313	0.666809	
2759	-0.201111	0.620575	
2760	-0.206299	0.572357	
2761	-0.209656	0.52887	
2762	-0.213318	0.479889	
2763	-0.219116	0.418854	
2764	-0.22583	0.348663	
2765	-0.230408	0.272369	
2766	-0.235291	0.152435	
2767	-0.241394	-0.0819397	
2768	-0.245056	-0.379944	
2769	-0.249939	-0.634766	
2770	-0.255127	-0.769043	
2771	-0.260315	-0.789642	
2772	-0.264893	-0.712128	
2773	-0.270081	-0.535736	
2774	-0.274963	-0.277863	
2775	-0.278015	0.0183105	
2776	-0.282898	0.267944	
2777	-0.284119	0.385437	
2778	-0.291138	0.38681	
2779	-0.294189	0.335693	
2780	-0.298767	0.271759	
2781	-0.302429	0.212097	
2782	-0.30426	0.155334	
2783	-0.308838	0.098877	
2784	-0.31311	0.0489807	
2785	-0.316162	0.00213623	
2786	-0.318604	-0.0857544	
2787	-0.322876	-0.28244	
2788	-0.323181	-0.537567	
2789	-0.328369	-0.748138	
2790	-0.332947	-0.844421	
2791	-0.336609	-0.833588	
2792	-0.33783	-0.731659	
2793	-0.33844	-0.532227	
2794	-0.342407	-0.253754	
2795	-0.343018	0.0570679	
2796	-0.346985	0.312347	
2797	-0.350647	0.424805	
2798	-0.351868	0.428314	
2799	-0.35553	0.397491	
2800	-0.35675	0.362396	
2801	-0.357666	0.332336	
2802	-0.361938	0.30304	
2803	-0.365601	0.268555	
2804	-0.367737	0.231476	
2805	-0.371704	0.191498	
2806	-0.374756	0.105591	
2807	-0.377502	-0.100098	
2808	-0.377502	-0.374908	
2809	-0.38147	-0.608368	
2810	-0.384827	-0.730438	
2811	-0.387268	-0.745544	
2812	-0.391846	-0.665588	
2813	-0.395813	-0.480194	
2814	-0.396423	-0.210571	
2815	-0.399475	0.0917053	
2816	-0.401001	0.344238	
2817	-0.404663	0.461426	
2818	-0.40741	0.467987	
2819	-0.410767	0.429077	
2820	-0.414734	0.386963	
2821	-0.415649	0.356445	
2822	-0.416565	0.328522	
2823	-0.420837	0.298157	
2824	-0.423889	0.26413	
2825	-0.426636	0.223694	
2826	-0.430908	0.136261	
2827	-0.434265	-0.0704956	
2828	-0.436401	-0.346069	
2829	-0.437927	-0.580444	
2830	-0.441589	-0.701141	
2831	-0.445251	-0.713806	
2832	-0.446472	-0.631256	
2833	-0.450745	-0.449219	
2834	-0.45166	-0.182037	
2835	-0.454712	0.120544	
2836	-0.458984	0.366669	
2837	-0.46051	0.478973	
2838	-0.465393	0.48584	
2839	-0.465088	0.450287	
2840	-0.46814	0.413055	
2841	-0.471191	0.383759	
2842	-0.474243	0.357971	
2843	-0.477905	0.324249	
2844	-0.480652	0.285492	
2845	-0.484314	0.242157	
2846	-0.487976	0.155029	
2847	-0.492554	-0.0532532	
2848	-0.49469	-0.328522	
2849	-0.497437	-0.563965	
2850	-0.499573	-0.68573	
2851	-0.504761	-0.697021	
2852	-0.508118	-0.614014	
2853	-0.512085	-0.433807	
2854	-0.515137	-0.169678	
2855	-0.518494	0.132294	
2856	-0.522156	0.384674	
2857	-0.523682	0.501404	
2858	-0.528259	0.508423	
2859	-0.532532	0.472107	
2860	-0.534058	0.431213	
2861	-0.538635	0.398254	
2862	-0.541992	0.3685	
2863	-0.543823	0.336761	
2864	-0.547791	0.30014	
2865	-0.549316	0.258026	
2866	-0.55542	0.167847	
2867	-0.556641	-0.0418091	
2868	-0.561523	-0.319214	
2869	-0.563049	-0.554657	
2870	-0.566406	-0.677643	
2871	-0.570374	-0.693359	
2872	-0.572205	-0.614166	
2873	-0.576477	-0.433044	
2874	-0.578003	-0.163116	
2875	-0.58197	0.144043	
2876	-0.582275	0.397491	
2877	-0.586243	0.516968	
2878	-0.587158	0.522461	
2879	-0.586548	0.483093	
2880	-0.590515	0.437164	
2881	-0.591736	0.399933	
2882	-0.596313	0.372162	
2883	-0.597839	0.342255	
2884	-0.601807	0.308533	
2885	-0.603027	0.268555	
2886	-0.6073	0.179291	
2887	-0.610352	-0.0337219	
2888	-0.613098	-0.315857	
2889	-0.61615	-0.554504	
2890	-0.617981	-0.677948	
2891	-0.621643	-0.689392	
2892	-0.625305	-0.605927	
2893	-0.629883	-0.418854	
2894	-0.632019	-0.145111	
2895	-0.634766	0.164795	
2896	-0.636902	0.422058	
2897	-0.640869	0.540009	
2898	-0.641479	0.54718	
2899	-0.645447	0.511322	
2900	-0.645752	0.472107	
2901	-0.646973	0.440369	
2902	-0.65033	0.412598	
2903	-0.651245	0.381165	
2904	-0.655518	0.344391	
2905	-0.656738	0.29953	
2906	-0.660095	0.206451	
2907	-0.661926	-0.0050354	
2908	-0.665283	-0.283966	
2909	-0.668945	-0.518341	
2910	-0.671082	-0.643768	
2911	-0.674744	-0.657349	
2912	-0.675659	-0.574188	
2913	-0.676575	-0.384674	
2914	-0.680847	-0.110474	
2915	-0.68512	0.199127	
2916	-0.687561	0.455475	
2917	-0.688171	0.572662	
2918	-0.690002	0.579071	
2919	-0.693665	0.543518	
2920	-0.695496	0.50415	
2921	-0.699463	0.472107	
2922	-0.700684	0.442505	
2923	-0.704956	0.410461	
2924	-0.706177	0.37384	
2925	-0.710144	0.331268	
2926	-0.712891	0.245056	
2927	-0.718079	0.0343323	
2928	-0.720825	-0.245056	
2929	-0.724182	-0.481567	
2930	-0.725098	-0.604858	
2931	-0.72876	-0.62088	
2932	-0.733337	-0.541534	
2933	-0.735168	-0.356903	
2934	-0.738525	-0.0816345	
2935	-0.742493	0.227966	
2936	-0.744324	0.483551	
2937	-0.744629	0.601044	
2938	-0.747681	0.608215	
2939	-0.752563	0.571899	
2940	-0.754089	0.531158	
2941	-0.757141	0.498962	
2942	-0.759583	0.468597	
2943	-0.762939	0.436707	
2944	-0.76416	0.400696	
2945	-0.767822	0.359344	
2946	-0.772095	0.271454	
2947	-0.775757	0.0596619	
2948	-0.777283	-0.218658	
2949	-0.779419	-0.457001	
2950	-0.783386	-0.586853	
2951	-0.787964	-0.606079	
2952	-0.789795	-0.530853	
2953	-0.791321	-0.347748	
2954	-0.793152	-0.0746155	
2955	-0.796204	0.235138	
2956	-0.798035	0.491486	
2957	-0.802307	0.609741	
2958	-0.805969	0.613861	
2959	-0.80719	0.576782	
2960	-0.811462	0.534515	
2961	-0.812683	0.49881	
2962	-0.812378	0.467224	
2963	-0.816345	0.435028	
2964	-0.817261	0.400696	
2965	-0.820313	0.361023	
2966	-0.822449	0.267792	
2967	-0.823059	0.0541687	
2968	-0.826416	-0.227966	
2969	-0.827942	-0.466156	
2970	-0.827332	-0.592194	
2971	-0.829773	-0.611115	
2972	-0.830688	-0.537109	
2973	-0.831604	-0.356598	
2974	-0.831909	-0.0883484	
2975	-0.832214	0.218811	
2976	-0.831909	0.473022	
2977	-0.83252	0.588837	
2978	-0.828247	0.593414	
2979	-0.823975	0.556335	
2980	-0.826416	0.514374	
2981	-0.821228	0.474548	
2982	-0.817261	0.437775	
2983	-0.817871	0.401154	
2984	-0.812988	0.365601	
2985	-0.808411	0.324402	
2986	-0.804443	0.233765	
2987	-0.798035	0.0231934	
2988	-0.794678	-0.260468	
2989	-0.789185	-0.504913	
2990	-0.786743	-0.63446	
2991	-0.780334	-0.652618	
2992	-0.775452	-0.577087	
2993	-0.769958	-0.398712	
2994	-0.76416	-0.132751	
2995	-0.758972	0.173187	
2996	-0.750122	0.428772	
2997	-0.744934	0.543976	
2998	-0.734863	0.547028	
2999	-0.729065	0.50827	
3000	-0.72052	0.46524	
3001	-0.710449	0.428467	
3002	-0.701599	0.395813	
3003	-0.694885	0.358429	
3004	-0.68573	0.321808	
3005	-0.675964	0.27832	
3006	-0.665588	0.189209	
3007	-0.655823	-0.0222778	
3008	-0.647278	-0.306702	
3009	-0.63324	-0.5513	
3010	-0.622253	-0.68512	
3011	-0.612793	-0.705261	
3012	-0.599365	-0.626373	
3013	-0.588074	-0.446014	
3014	-0.574951	-0.17807	
3015	-0.561523	0.129089	
3016	-0.548706	0.382996	
3017	-0.534363	0.497284	
3018	-0.523682	0.501251	
3019	-0.509338	0.462341	
3020	-0.49469	0.41626	
3021	-0.480957	0.381622	
3022	-0.467224	0.348816	
3023	-0.451965	0.314178	
3024	-0.437927	0.275726	
3025	-0.42572	0.23407	
3026	-0.410461	0.147705	
3027	-0.396118	-0.0627136	
3028	-0.382385	-0.345154	
3029	-0.368652	-0.5896	
3030	-0.354004	-0.720215	
3031	-0.33905	-0.738525	
3032	-0.324097	-0.660858	
3033	-0.309143	-0.480194	
3034	-0.29541	-0.211945	
3035	-0.280151	0.0917053	
3036	-0.264893	0.349121	
3037	-0.249023	0.470581	
3038	-0.231018	0.475616	
3039	-0.214844	0.440521	
3040	-0.198059	0.396576	
3041	-0.186157	0.361786	
3042	-0.168457	0.32959	
3043	-0.153809	0.297241	
3044	-0.13855	0.261383	
3045	-0.123291	0.222168	
3046	-0.107422	0.135345	
3047	-0.0933838	-0.0744629	
3048	-0.0762939	-0.356598	
3049	-0.0646973	-0.598602	
3050	-0.0460815	-0.728455	
3051	-0.0341797	-0.747681	
3052	-0.0210571	-0.669708	
3053	-0.00640869	-0.484619	
3054	0.0100708	-0.214233	
3055	0.0241089	0.0964355	
3056	0.0378418	0.354004	
3057	0.0524902	0.471191	
3058	0.0683594	0.475464	
3059	0.0820923	0.435181	
3060	0.0976563	0.391998	
3061	0.111389	0.355225	
3062	0.125732	0.324707	
3063	0.140686	0.2948	
3064	0.154724	0.258026	
3065	0.169983	0.216522	
3066	0.1828	0.128479	
3067	0.198059	-0.0784302	
3068	0.209961	-0.357208	
3069	0.223999	-0.597382	
3070	0.238342	-0.727997	
3071	0.252991	-0.747528	
3072	0.266724	-0.667419	
3073	0.279541	-0.484619	
3074	0.292053	-0.216522	
3075	0.30304	0.0875854	
3076	0.317688	0.344086	
3077	0.331116	0.463257	
3078	0.344543	0.46814	
3079	0.35675	0.429077	
3080	0.370789	0.384674	
3081	0.383606	0.349426	
3082	0.395203	0.319977	
3083	0.405884	0.287628	
3084	0.419617	0.254364	
3085	0.429688	0.217743	
3086	0.44342	0.13504	
3087	0.453186	-0.0720215	
3088	0.463257	-0.354004	
3089	0.473938	-0.599213	
3090	0.48584	-0.729675	
3091	0.492859	-0.748596	
3092	0.50293	-0.664673	
3093	0.513611	-0.477753	
3094	0.523682	-0.204315	
3095	0.532532	0.101776	
3096	0.542603	0.354614	
3097	0.552979	0.470428	
3098	0.561523	0.473175	
3099	0.568237	0.432739	
3100	0.576477	0.389252	
3101	0.585327	0.352478	
3102	0.591736	0.323944	
3103	0.601196	0.296631	
3104	0.6073	0.263062	
3105	0.611877	0.223083	
3106	0.619202	0.136871	
3107	0.62561	-0.0672913	
3108	0.632019	-0.347595	
3109	0.636597	-0.592041	
3110	0.641785	-0.723877	
3111	0.645752	-0.74173	
3112	0.654297	-0.6604	
3113	0.658875	-0.47821	
3114	0.664673	-0.210724	
3115	0.669556	0.0978088	
3116	0.675049	0.357056	
3117	0.683289	0.474091	
3118	0.686035	0.475311	
3119	0.690308	0.432281	
3120	0.695801	0.38559	
3121	0.700378	0.349426	
3122	0.704041	0.315857	
3123	0.707703	0.283661	
3124	0.713196	0.252228	
3125	0.715027	0.218964	
3126	0.719604	0.142365	
3127	0.72113	-0.0596619	
3128	0.724792	-0.336761	
3129	0.72876	-0.575256	
3130	0.730591	-0.703125	
3131	0.733337	-0.724182	
3132	0.735168	-0.648193	
3133	0.738525	-0.469055	
3134	0.740051	-0.200806	
3135	0.744019	0.106812	
3136	0.744324	0.36377	
3137	0.747986	0.478058	
3138	0.751648	0.478668	
3139	0.755005	0.439758	
3140	0.758057	0.398102	
3141	0.759277	0.361786	
3142	0.762329	0.327606	
3143	0.763245	0.29541	
3144	0.764771	0.263062	
3145	0.767212	0.22934	
3146	0.767822	0.147095	
3147	0.768738	-0.0569153	
3148	0.771484	-0.335236	
3149	0.773621	-0.572968	
3150	0.77301	-0.700226	
3151	0.773315	-0.718079	
3152	0.77301	-0.642853	
3153	0.776367	-0.464935	
3154	0.777588	-0.200348	
3155	0.777283	0.102081	
3156	0.778198	0.355835	
3157	0.778198	0.470428	
3158	0.778198	0.47287	
3159	0.777588	0.433807	
3160	0.779114	0.389557	
3161	0.778809	0.357056	
3162	0.777588	0.327301	
3163	0.777283	0.298157	
3164	0.778198	0.266113	
3165	0.780029	0.229492	
3166	0.776978	0.149994	
3167	0.777588	-0.0506592	
3168	0.779114	-0.325012	
3169	0.779114	-0.564728	
3170	0.778198	-0.693207	
3171	0.777588	-0.711365	
3172	0.777283	-0.63446	
3173	0.775757	-0.454712	
3174	0.777588	-0.192261	
3175	0.778198	0.108032	
3176	0.774231	0.360565	
3177	0.773315	0.475464	
3178	0.777893	0.478821	
3179	0.774841	0.441895	
3180	0.773926	0.399628	
3181	0.772705	0.367126	
3182	0.77301	0.342102	
3183	0.77301	0.314941	
3184	0.772705	0.28244	
3185	0.770569	0.241241	
3186	0.768433	0.157623	
3187	0.767822	-0.042572	
3188	0.767517	-0.315552	
3189	0.768127	-0.551147	
3190	0.767517	-0.678711	
3191	0.76355	-0.699463	
3192	0.76355	-0.624695	
3193	0.76355	-0.445099	
3194	0.763855	-0.182037	
3195	0.763245	0.116882	
3196	0.762024	0.368958	
3197	0.761108	0.482941	
3198	0.761108	0.484772	
3199	0.758972	0.442963	
3200	0.758362	0.396576	
3201	0.758362	0.35965	
3202	0.755615	0.330353	
3203	0.7547	0.306854	
3204	0.753174	0.279236	
3205	0.753784	0.240479	
3206	0.750122	0.15274	
3207	0.748596	-0.0526428	
3208	0.747375	-0.325165	
3209	0.742493	-0.555725	
3210	0.739136	-0.681458	
3211	0.738525	-0.701141	
3212	0.735168	-0.626984	
3213	0.731201	-0.452576	
3214	0.72998	-0.191498	
3215	0.727539	0.107117	
3216	0.722961	0.357361	
3217	0.719299	0.47226	
3218	0.715332	0.475769	
3219	0.713196	0.437012	
3220	0.711975	0.393524	
3221	0.710144	0.357056	
3222	0.705872	0.327148	
3223	0.704651	0.297852	
3224	0.700989	0.267944	
3225	0.698853	0.229797	
3226	0.696106	0.148315	
3227	0.690002	-0.0482178	
3228	0.689697	-0.318604	
3229	0.68634	-0.555878	
3230	0.683899	-0.686493	
3231	0.680542	-0.708008	
3232	0.679932	-0.632629	
3233	0.675964	-0.457306	
3234	0.674744	-0.19577	
3235	0.675049	0.10437	
3236	0.671997	0.354919	
3237	0.668945	0.471039	
3238	0.665283	0.477448	
3239	0.664978	0.43869	
3240	0.664063	0.396423	
3241	0.663147	0.364532	
3242	0.660095	0.335083	
3243	0.658264	0.302429	
3244	0.655518	0.266113	
3245	0.653076	0.229645	
3246	0.653992	0.150146	
3247	0.650635	-0.0497437	
3248	0.647278	-0.322266	
3249	0.645447	-0.560303	
3250	0.644836	-0.688782	
3251	0.640869	-0.709534	
3252	0.640869	-0.632782	
3253	0.640564	-0.456085	
3254	0.636902	-0.193481	
3255	0.635071	0.105896	
3256	0.631409	0.357513	
3257	0.630798	0.473633	
3258	0.630798	0.476379	
3259	0.628967	0.43457	
3260	0.626221	0.389099	
3261	0.626221	0.352631	
3262	0.62561	0.32135	
3263	0.625305	0.293121	
3264	0.621643	0.266266	
3265	0.621033	0.23407	
3266	0.621033	0.154877	
3267	0.621338	-0.0466919	
3268	0.621338	-0.323334	
3269	0.621033	-0.56366	
3270	0.621033	-0.695648	
3271	0.621338	-0.7164	
3272	0.621643	-0.642395	
3273	0.621338	-0.463867	
3274	0.620728	-0.198517	
3275	0.605469	0.10498	
3276	0.59906	0.359497	
3277	0.596619	0.476837	
3278	0.596008	0.480499	
3279	0.596008	0.441284	
3280	0.592346	0.398254	
3281	0.590515	0.363159	
3282	0.587463	0.337067	
3283	0.587463	0.309906	
3284	0.585327	0.278625	
3285	0.582581	0.242157	
3286	0.58197	0.159149	
3287	0.58136	-0.0471497	
3288	0.577698	-0.328217	
3289	0.576782	-0.572815	
3290	0.573425	-0.705719	
3291	0.572205	-0.728455	
3292	0.571899	-0.654755	
3293	0.572815	-0.474701	
3294	0.568848	-0.203705	
3295	0.571899	0.107574	
3296	0.572205	0.369415	
3297	0.568542	0.489349	
3298	0.571289	0.48996	
3299	0.569458	0.444794	
3300	0.570984	0.397491	
3301	0.568542	0.364227	
3302	0.572205	0.336151	
3303	0.568848	0.30777	
3304	0.567627	0.275726	
3305	0.567322	0.23819	
3306	0.566711	0.153809	
3307	0.566406	-0.0540161	
3308	0.56366	-0.339966	
3309	0.562439	-0.589447	
3310	0.562134	-0.722351	
3311	0.562744	-0.74295	
3312	0.562744	-0.668945	
3313	0.562744	-0.488281	
3314	0.561829	-0.214233	
3315	0.562744	0.0990295	
3316	0.562744	0.362549	
3317	0.562439	0.484467	
3318	0.562439	0.488129	
3319	0.562134	0.44693	
3320	0.559387	0.401154	
3321	0.559998	0.364838	
3322	0.559082	0.336456	
3323	0.557251	0.307007	
3324	0.557556	0.274963	
3325	0.557556	0.238342	
3326	0.55481	0.154572	
3327	0.556335	-0.0537109	
3328	0.552979	-0.339813	
3329	0.552673	-0.587921	
3330	0.552673	-0.722198	
3331	0.553284	-0.743561	
3332	0.551453	-0.666809	
3333	0.54718	-0.487213	
3334	0.547485	-0.0900269	
3335	0.547791	0.245667	
3336	0.547485	0.447083	
3337	0.54718	0.501404	
3338	0.547791	0.472107	
3339	0.546875	0.423279	
3340	0.546265	0.38269	
3341	0.542908	0.353546	
3342	0.542603	0.32486	
3343	0.543213	0.291748	
3344	0.53894	0.25528	
3345	0.538025	0.202789	
3346	0.53772	0.0643921	
3347	0.536499	-0.197601	
3348	0.533142	-0.479126	
3349	0.533142	-0.681152	
3350	0.532227	-0.758514	
3351	0.532227	-0.729675	
3352	0.531311	-0.59494	
3353	0.528564	-0.358887	
3354	0.527954	-0.0515747	
3355	0.528259	0.258026	
3356	0.528259	0.460663	
3357	0.52887	0.518188	
3358	0.528564	0.491486	
3359	0.526428	0.4422	
3360	0.525513	0.399628	
3361	0.527344	0.366058	
3362	0.527039	0.331879	
3363	0.523987	0.297546	
3364	0.524597	0.260315	
3365	0.523071	0.206604	
3366	0.523071	0.0643921	
3367	0.523071	-0.201721	
3368	0.523376	-0.482788	
3369	0.522766	-0.681	
3370	0.523682	-0.757141	
3371	0.519714	-0.733948	
3372	0.518188	-0.601959	
3373	0.517883	-0.364075	
3374	0.517883	-0.0546265	
3375	0.516052	0.257416	
3376	0.514832	0.462036	
3377	0.513306	0.517273	
3378	0.513306	0.492706	
3379	0.512695	0.449829	
3380	0.508728	0.405426	
3381	0.508728	0.368805	
3382	0.506287	0.337677	
3383	0.504456	0.305176	
3384	0.503235	0.268097	
3385	0.500793	0.214233	
3386	0.499268	0.0704956	
3387	0.498352	-0.195465	
3388	0.49469	-0.481415	
3389	0.492249	-0.686493	
3390	0.489197	-0.766144	
3391	0.487366	-0.738678	
3392	0.484009	-0.604706	
3393	0.480347	-0.366364	
3394	0.478821	-0.0564575	
3395	0.477905	0.257263	
3396	0.474243	0.462646	
3397	0.470581	0.521393	
3398	0.469971	0.496674	
3399	0.46814	0.448303	
3400	0.465088	0.406189	
3401	0.464478	0.373993	
3402	0.464172	0.344086	
3403	0.456238	0.314331	
3404	0.454407	0.280762	
3405	0.450745	0.228577	
3406	0.449219	0.085907	
3407	0.445251	-0.182495	
3408	0.441895	-0.47226	
3409	0.440063	-0.678864	
3410	0.436707	-0.759277	
3411	0.435486	-0.733948	
3412	0.435181	-0.596924	
3413	0.429993	-0.354004	
3414	0.426941	-0.0395203	
3415	0.42572	0.276337	
3416	0.425415	0.484619	
3417	0.422363	0.54306	
3418	0.420837	0.514526	
3419	0.419006	0.466461	
3420	0.415955	0.422516	
3421	0.413818	0.386658	
3422	0.413513	0.354767	
3423	0.410767	0.321808	
3424	0.409851	0.289917	
3425	0.406189	0.239105	
3426	0.406799	0.0965881	
3427	0.401917	-0.174408	
3428	0.400696	-0.467224	
3429	0.396423	-0.671234	
3430	0.39093	-0.749969	
3431	0.391235	-0.72403	
3432	0.386658	-0.587921	
3433	0.386047	-0.346527	
3434	0.381775	-0.0292969	
3435	0.381775	0.289764	
3436	0.377197	0.496674	
3437	0.375366	0.553894	
3438	0.372314	0.526276	
3439	0.371399	0.479126	
3440	0.370178	0.435791	
3441	0.366516	0.4039	
3442	0.362854	0.375214	
3443	0.357971	0.340576	
3444	0.35553	0.30426	
3445	0.352783	0.249023	
3446	0.350342	0.100861	
3447	0.34729	-0.171661	
3448	0.343628	-0.463409	
3449	0.338135	-0.671234	
3450	0.336914	-0.752106	
3451	0.333252	-0.726776	
3452	0.327759	-0.592194	
3453	0.324097	-0.354156	
3454	0.321655	-0.0419617	
3455	0.317993	0.275574	
3456	0.316162	0.487518	
3457	0.311279	0.552521	
3458	0.307617	0.529327	
3459	0.306396	0.486145	
3460	0.302429	0.445557	
3461	0.296936	0.408325	
3462	0.292969	0.373688	
3463	0.289612	0.338593	
3464	0.28656	0.302124	
3465	0.283813	0.247192	
3466	0.283813	0.101471	
3467	0.282898	-0.16861	
3468	0.282898	-0.460968	
3469	0.283203	-0.669098	
3470	0.283203	-0.750732	
3471	0.283203	-0.723267	
3472	0.283508	-0.587311	
3473	0.283508	-0.350494	
3474	0.282593	-0.0364685	
3475	0.283203	0.283203	
3476	0.282898	0.494232	
3477	0.282898	0.553741	
3478	0.283508	0.525665	
3479	0.283203	0.476074	
3480	0.283508	0.432739	
3481	0.283813	0.393982	
3482	0.282898	0.356903	
3483	0.282898	0.322266	
3484	0.284119	0.28717	
3485	0.283203	0.231781	
3486	0.282898	0.0827026	
3487	0.263367	-0.195007	
3488	0.191345	-0.492249	
3489	0.184937	-0.70343	
3490	0.181885	-0.787048	
3491	0.179138	-0.763855	
3492	0.175781	-0.62851	
3493	0.174561	-0.385437	
3494	0.169983	-0.0708008	
3495	0.169067	0.246887	
3496	0.167236	0.457764	
3497	0.161438	0.520477	
3498	0.160522	0.500641	
3499	0.157471	0.455322	
3500	0.154724	0.408783	
3501	0.150146	0.370331	
3502	0.146484	0.337372	
3503	0.144653	0.305023	
3504	0.140991	0.268097	
3505	0.137634	0.211487	
3506	0.132751	0.0642395	
3507	0.130615	-0.206299	
3508	0.127258	-0.500946	
3509	0.123291	-0.71228	
3510	0.12085	-0.797119	
3511	0.117188	-0.777435	
3512	0.11322	-0.643311	
3513	0.108643	-0.400085	
3514	0.105896	-0.0804138	
3515	0.101318	0.24353	
3516	0.100403	0.459747	
3517	0.0961304	0.52124	
3518	0.0921631	0.496521	
3519	0.088501	0.447235	
3520	0.0839233	0.4039	
3521	0.0799561	0.371399	
3522	0.078125	0.339813	
3523	0.0772095	0.304718	
3524	0.0723267	0.265656	
3525	0.0686646	0.210876	
3526	0.0650024	0.0634766	
3527	0.062561	-0.210876	
3528	0.0585938	-0.505829	
3529	0.0552368	-0.715485	
3530	0.0531006	-0.795288	
3531	0.0488281	-0.767212	
3532	0.0448608	-0.631866	
3533	0.043335	-0.392151	
3534	0.039978	-0.0749207	
3535	0.0378418	0.249176	
3536	0.0372314	0.463867	
3537	0.0326538	0.525818	
3538	0.0292969	0.503387	
3539	0.0283813	0.456543	
3540	0.0250244	0.41153	
3541	0.0219727	0.375977	
3542	0.0189209	0.341797	
3543	0.0140381	0.307617	
3544	0.0134277	0.271759	
3545	0.00823975	0.221863	
3546	0.00518799	0.0782776	
3547	0.0012207	-0.195313	
3548	-0.00152588	-0.486603	
3549	-0.00579834	-0.687561	
3550	-0.00976563	-0.762634	
3551	-0.0134277	-0.733032	
3552	-0.0146484	-0.592041	
3553	-0.0180054	-0.338593	
3554	-0.0231934	-0.0115967	
3555	-0.0234985	0.316467	
3556	-0.0274658	0.53772	
3557	-0.0299072	0.607605	
3558	-0.0350952	0.593262	
3559	-0.0387573	0.55954	
3560	-0.0424194	0.528717	
3561	-0.0454712	0.506439	
3562	-0.0485229	0.48645	
3563	-0.0531006	0.465088	
3564	-0.0549316	0.442352	
3565	-0.0585938	0.400391	
3566	-0.0622559	0.263062	
3567	-0.0650024	-0.0109863	
3568	-0.0680542	-0.310211	
3569	-0.0726318	-0.522461	
3570	-0.0775146	-0.607147	
3571	-0.0790405	-0.583649	
3572	-0.083313	-0.446472	
3573	-0.0872803	-0.193329	
3574	-0.0906372	0.134888	
3575	-0.093689	0.462189	
3576	-0.0985718	0.677338	
3577	-0.102234	0.736847	
3578	-0.102539	0.704193	
3579	-0.107422	0.648041	
3580	-0.111084	0.595245	
3581	-0.115662	0.548096	
3582	-0.118713	0.492706	
3583	-0.123291	0.430145	
3584	-0.126648	0.357666	
3585	-0.13092	0.267792	
3586	-0.135803	0.0848389	
3587	-0.141296	-0.225983	
3588	-0.143127	-0.553894	
3589	-0.14801	-0.790253	
3590	-0.151978	-0.888367	
3591	-0.155945	-0.870972	
3592	-0.158081	-0.735931	
3593	-0.161133	-0.491638	
3594	-0.1651	-0.166931	
3595	-0.167542	0.168152	
3596	-0.174255	0.392151	
3597	-0.176697	0.452118	
3598	-0.179749	0.414581	
3599	-0.182495	0.347595	
3600	-0.184937	0.282593	
3601	-0.189514	0.223389	
3602	-0.191956	0.167236	
3603	-0.195007	0.113373	
3604	-0.19928	0.065918	
3605	-0.200195	0.0119019	
3606	-0.204773	-0.130463	
3607	-0.209045	-0.400391	
3608	-0.209961	-0.691376	
3609	-0.214233	-0.892181	
3610	-0.215759	-0.955811	
3611	-0.221252	-0.908051	
3612	-0.225525	-0.747375	
3613	-0.226135	-0.476837	
3614	-0.229492	-0.130768	
3615	-0.231323	0.217285	
3616	-0.23468	0.450287	
3617	-0.238342	0.523987	
3618	-0.240173	0.506287	
3619	-0.24353	0.462036	
3620	-0.245667	0.419006	
3621	-0.250549	0.385132	
3622	-0.254822	0.353851	
3623	-0.255432	0.322876	
3624	-0.259399	0.288696	
3625	-0.263367	0.233154	
3626	-0.267639	0.0810242	
3627	-0.272827	-0.205536	
3628	-0.274963	-0.519867	
3629	-0.278625	-0.746613	
3630	-0.281372	-0.834656	
3631	-0.284729	-0.808716	
3632	-0.288696	-0.664978	
3633	-0.289612	-0.40863	
3634	-0.294495	-0.0723267	
3635	-0.298462	0.268097	
3636	-0.302734	0.495453	
3637	-0.30365	0.562439	
3638	-0.307007	0.540161	
3639	-0.31189	0.491486	
3640	-0.314636	0.445251	
3641	-0.317383	0.40802	
3642	-0.321655	0.374298	
3643	-0.322876	0.339813	
3644	-0.325317	0.302734	
3645	-0.328979	0.248718	
3646	-0.333557	0.0959778	
3647	-0.33783	-0.196381	
3648	-0.33783	-0.514679	
3649	-0.340881	-0.74173	
3650	-0.344238	-0.82901	
3651	-0.346069	-0.802002	
3652	-0.350647	-0.656891	
3653	-0.35614	-0.398102	
3654	-0.357361	-0.0587463	
3655	-0.357056	0.288391	
3656	-0.361938	0.518646	
3657	-0.366211	0.586853	
3658	-0.369873	0.56076	
3659	-0.371094	0.513153	
3660	-0.375061	0.467987	
3661	-0.379944	0.430298	
3662	-0.38269	0.392609	
3663	-0.387268	0.355988	
3664	-0.391846	0.319061	
3665	-0.395203	0.265656	
3666	-0.401611	0.11261	
3667	-0.406799	-0.180359	
3668	-0.410156	-0.498657	
3669	-0.414734	-0.726624	
3670	-0.419312	-0.816956	
3671	-0.421753	-0.789795	
3672	-0.426025	-0.646362	
3673	-0.430298	-0.388031	
3674	-0.435181	-0.0489807	
3675	-0.439453	0.298462	
3676	-0.441895	0.527802	
3677	-0.445251	0.595245	
3678	-0.449219	0.570526	
3679	-0.454102	0.522919	
3680	-0.455322	0.476685	
3681	-0.4599	0.441742	
3682	-0.464783	0.407867	
3683	-0.465088	0.370789	
3684	-0.472412	0.331726	
3685	-0.474243	0.274963	
3686	-0.476379	0.118103	
3687	-0.479431	-0.177765	
3688	-0.482483	-0.500488	
3689	-0.485535	-0.734558	
3690	-0.490417	-0.826721	
3691	-0.49408	-0.801544	
3692	-0.498047	-0.658112	
3693	-0.498657	-0.395203	
3694	-0.500183	-0.0498962	
3695	-0.503845	0.301208	
3696	-0.505066	0.535278	
3697	-0.509644	0.604095	
3698	-0.513611	0.575256	
3699	-0.515442	0.523071	
3700	-0.519714	0.476837	
3701	-0.523987	0.440521	
3702	-0.527344	0.405731	
3703	-0.532227	0.370636	
3704	-0.534058	0.332184	
3705	-0.537109	0.279236	
3706	-0.542297	0.121765	
3707	-0.54657	-0.181274	
3708	-0.549011	-0.509644	
3709	-0.553284	-0.746307	
3710	-0.556641	-0.840912	
3711	-0.560303	-0.816193	
3712	-0.561829	-0.668945	
3713	-0.566406	-0.401001	
3714	-0.569153	-0.0422668	
3715	-0.572205	0.318909	
3716	-0.576477	0.56015	
3717	-0.581055	0.628662	
3718	-0.582886	0.601654	
3719	-0.585938	0.547485	
3720	-0.590515	0.499573	
3721	-0.594177	0.462799	
3722	-0.600891	0.42984	
3723	-0.603027	0.39566	
3724	-0.608215	0.360718	
3725	-0.613098	0.306854	
3726	-0.617981	0.151367	
3727	-0.622559	-0.150146	
3728	-0.626831	-0.479279	
3729	-0.631104	-0.715179	
3730	-0.635071	-0.807343	
3731	-0.639954	-0.779877	
3732	-0.644836	-0.631256	
3733	-0.646057	-0.36087	
3734	-0.649719	-0.00427246	
3735	-0.654907	0.358124	
3736	-0.65918	0.59906	
3737	-0.661926	0.670013	
3738	-0.665283	0.645142	
3739	-0.670166	0.594177	
3740	-0.676575	0.547028	
3741	-0.680237	0.509949	
3742	-0.684204	0.475464	
3743	-0.688782	0.438385	
3744	-0.69397	0.395966	
3745	-0.699158	0.338593	
3746	-0.700684	0.180664	
3747	-0.705261	-0.12085	
3748	-0.709534	-0.452271	
3749	-0.712891	-0.687561	
3750	-0.718384	-0.779572	
3751	-0.72113	-0.751953	
3752	-0.725708	-0.602112	
3753	-0.729065	-0.335541	
3754	-0.733948	0.0227356	
3755	-0.738831	0.387726	
3756	-0.743408	0.630646	
3757	-0.747986	0.703583	
3758	-0.751953	0.674896	
3759	-0.757446	0.619354	
3760	-0.762634	0.57312	
3761	-0.765076	0.535278	
3762	-0.771484	0.500793	
3763	-0.777283	0.464478	
3764	-0.779114	0.427399	
3765	-0.786438	0.371704	
3766	-0.792542	0.210571	
3767	-0.797424	-0.0953674	
3768	-0.801392	-0.430603	
3769	-0.805969	-0.672913	
3770	-0.812378	-0.769806	
3771	-0.817566	-0.744476	
3772	-0.822754	-0.595398	
3773	-0.827637	-0.328369	
3774	-0.83252	0.0267029	
3775	-0.840454	0.391998	
3776	-0.843201	0.638428	
3777	-0.847473	0.710907	
3778	-0.852356	0.680847	
3779	-0.857239	0.62561	
3780	-0.861511	0.575562	
3781	-0.864868	0.536499	
3782	-0.870056	0.501251	
3783	-0.875244	0.464783	
3784	-0.876465	0.424957	
3785	-0.879517	0.365601	
3786	-0.881653	0.206909	
3787	-0.88562	-0.100861	
3788	-0.886841	-0.437622	
3789	-0.889893	-0.677643	
3790	-0.890503	-0.772552	
3791	-0.892334	-0.747681	
3792	-0.895996	-0.601501	
3793	-0.894775	-0.335083	
3794	-0.893555	0.019989	
3795	-0.891113	0.382385	
3796	-0.891418	0.625305	
3797	-0.891113	0.694885	
3798	-0.890198	0.666962	
3799	-0.88623	0.608368	
3800	-0.885315	0.555267	
3801	-0.881653	0.513	
3802	-0.87738	0.475464	
3803	-0.87616	0.435181	
3804	-0.872803	0.391388	
3805	-0.86792	0.334015	
3806	-0.862732	0.177307	
3807	-0.859985	-0.130463	
3808	-0.856323	-0.466919	
3809	-0.851135	-0.709839	
3810	-0.843506	-0.809326	
3811	-0.836487	-0.787354	
3812	-0.831299	-0.641174	
3813	-0.822754	-0.372314	
3814	-0.81543	-0.0164795	
3815	-0.806885	0.345612	
3816	-0.801392	0.588531	
3817	-0.793152	0.655212	
3818	-0.783081	0.62088	
3819	-0.773926	0.557556	
3820	-0.766907	0.502014	
3821	-0.759888	0.4599	
3822	-0.751038	0.423279	
3823	-0.744019	0.384827	
3824	-0.735168	0.343475	
3825	-0.724182	0.284882	
3826	-0.714722	0.124054	
3827	-0.705261	-0.186615	
3828	-0.69519	-0.523224	
3829	-0.685425	-0.767059	
3830	-0.675049	-0.86792	
3831	-0.665588	-0.845795	
3832	-0.652466	-0.697784	
3833	-0.644226	-0.430756	
3834	-0.631714	-0.0759888	
3835	-0.620728	0.285797	
3836	-0.606384	0.527649	
3837	-0.592957	0.597534	
3838	-0.578918	0.566711	
3839	-0.568237	0.510712	
3840	-0.554199	0.460205	
3841	-0.53894	0.417633	
3842	-0.527954	0.378418	
3843	-0.514832	0.339203	
3844	-0.501099	0.29892	
3845	-0.486755	0.240784	
3846	-0.470276	0.0820923	
3847	-0.455933	-0.225067	
3848	-0.4422	-0.56427	
3849	-0.426331	-0.810852	
3850	-0.411072	-0.909424	
3851	-0.396118	-0.885315	
3852	-0.381775	-0.739288	
3853	-0.364075	-0.470428	
3854	-0.348816	-0.112	
3855	-0.334167	0.255432	
3856	-0.320129	0.500641	
3857	-0.301208	0.571289	
3858	-0.285034	0.540314	
3859	-0.271301	0.481873	
3860	-0.255737	0.431213	
3861	-0.239258	0.393066	
3862	-0.224609	0.357971	
3863	-0.206299	0.319366	
3864	-0.19043	0.279694	
3865	-0.175781	0.223236	
3866	-0.161133	0.0657654	
3867	-0.143433	-0.239258	
3868	-0.127563	-0.572815	
3869	-0.112915	-0.81543	
3870	-0.0982666	-0.914459	
3871	-0.0796509	-0.891876	
3872	-0.0656128	-0.744171	
3873	-0.0494385	-0.479889	
3874	-0.0311279	-0.128632	
3875	-0.015564	0.236053	
3876	0	0.481873	
3877	0.0167847	0.554352	
3878	0.032959	0.523834	
3879	0.0497437	0.468903	
3880	0.0637817	0.418396	
3881	0.0805664	0.380859	
3882	0.0958252	0.347137	
3883	0.111694	0.313721	
3884	0.127258	0.274506	
3885	0.141907	0.218811	
3886	0.155334	0.065918	
3887	0.170288	-0.237885	
3888	0.184326	-0.572815	
3889	0.198059	-0.815125	
3890	0.213318	-0.910492	
3891	0.227356	-0.886841	
3892	0.240479	-0.741272	
3893	0.257568	-0.475006	
3894	0.269165	-0.122223	
3895	0.282593	0.240326	
3896	0.296326	0.483551	
3897	0.308228	0.550842	
3898	0.325623	0.520325	
3899	0.336609	0.461731	
3900	0.349731	0.412292	
3901	0.360107	0.375977	
3902	0.374756	0.343323	
3903	0.385132	0.30899	
3904	0.396118	0.270386	
3905	0.40863	0.21347	
3906	0.419922	0.0585938	
3907	0.429382	-0.241852	
3908	0.441284	-0.570831	
3909	0.454102	-0.80719	
3910	0.463867	-0.902557	
3911	0.473938	-0.875702	
3912	0.483704	-0.729828	
3913	0.492554	-0.466156	
3914	0.50293	-0.117798	
3915	0.513306	0.2388	
3916	0.523987	0.48111	
3917	0.533447	0.551453	
3918	0.542297	0.523529	
3919	0.552063	0.469055	
3920	0.562439	0.419312	
3921	0.567932	0.378876	
3922	0.576477	0.343475	
3923	0.582886	0.304565	
3924	0.591431	0.26825	
3925	0.59845	0.21759	
3926	0.604858	0.0654602	
3927	0.611877	-0.229492	
3928	0.620117	-0.554962	
3929	0.625305	-0.790558	
3930	0.630188	-0.88501	
3931	0.635071	-0.860291	
3932	0.641785	-0.714874	
3933	0.646667	-0.453949	
3934	0.653687	-0.109406	
3935	0.656433	0.24353	
3936	0.664063	0.483551	
3937	0.668945	0.555115	
3938	0.670471	0.528412	
3939	0.678101	0.47287	
3940	0.680542	0.419922	
3941	0.686035	0.37796	
3942	0.690613	0.339355	
3943	0.69458	0.305176	
3944	0.698242	0.270538	
3945	0.700684	0.218811	
3946	0.704956	0.0683594	
3947	0.708618	-0.223541	
3948	0.712891	-0.545807	
3949	0.718079	-0.776825	
3950	0.71991	-0.870972	
3951	0.723572	-0.848389	
3952	0.727234	-0.704956	
3953	0.732422	-0.446014	
3954	0.734558	-0.106049	
3955	0.73822	0.240326	
3956	0.739441	0.473175	
3957	0.743103	0.541229	
3958	0.747375	0.513306	
3959	0.748596	0.461273	
3960	0.749207	0.413055	
3961	0.753479	0.375977	
3962	0.757141	0.339508	
3963	0.758057	0.304718	
3964	0.758667	0.269775	
3965	0.762634	0.220032	
3966	0.764465	0.0762939	
3967	0.76355	-0.209351	
3968	0.763855	-0.524597	
3969	0.766907	-0.754547	
3970	0.767212	-0.848236	
3971	0.768127	-0.824738	
3972	0.769348	-0.686035	
3973	0.773315	-0.434875	
3974	0.773315	-0.100555	
3975	0.776367	0.241089	
3976	0.778198	0.473938	
3977	0.777588	0.541992	
3978	0.776672	0.513458	
3979	0.778198	0.461578	
3980	0.778198	0.413513	
3981	0.777893	0.375824	
3982	0.779114	0.343475	
3983	0.782471	0.310974	
3984	0.779114	0.275574	
3985	0.778198	0.225525	
3986	0.778198	0.0794983	
3987	0.777893	-0.201874	
3988	0.778503	-0.514374	
3989	0.778198	-0.742188	
3990	0.778198	-0.834961	
3991	0.778198	-0.814819	
3992	0.777893	-0.67627	
3993	0.778198	-0.423889	
3994	0.778503	-0.0894165	
3995	0.777588	0.25238	
3996	0.778198	0.481873	
3997	0.778198	0.547485	
3998	0.778198	0.520325	
3999	0.777588	0.466309	
4000	0.777893	0.418243	
4001	0.777893	0.38147	
4002	0.775146	0.351563	
4003	0.777588	0.321198	
4004	0.774536	0.287476	
4005	0.773621	0.237579	
4006	0.772705	0.092926	
4007	0.773621	-0.188904	
4008	0.77301	-0.49881	
4009	0.77301	-0.722656	
4010	0.773315	-0.81131	
4011	0.773315	-0.789337	
4012	0.772705	-0.652466	
4013	0.773315	-0.407257	
4014	0.77301	-0.080719	
4015	0.773315	0.253906	
4016	0.77301	0.48111	
4017	0.7724	0.547638	
4018	0.769653	0.52063	
4019	0.77179	0.469208	
4020	0.768433	0.421143	
4021	0.768127	0.383301	
4022	0.768738	0.350647	
4023	0.764465	0.318756	
4024	0.76355	0.285034	
4025	0.76355	0.235748	
4026	0.759888	0.093689	
4027	0.758667	-0.181427	
4028	0.755005	-0.484924	
4029	0.752563	-0.704346	
4030	0.750732	-0.791473	
4031	0.748291	-0.768433	
4032	0.744019	-0.635223	
4033	0.743103	-0.39566	
4034	0.739136	-0.0791931	
4035	0.737305	0.245972	
4036	0.733948	0.467377	
4037	0.730286	0.532379	
4038	0.729065	0.506287	
4039	0.726318	0.457764	
4040	0.725098	0.410156	
4041	0.720825	0.371857	
4042	0.718994	0.341339	
4043	0.718079	0.311432	
4044	0.714417	0.277863	
4045	0.712891	0.229187	
4046	0.709534	0.0920105	
4047	0.708618	-0.175934	
4048	0.704651	-0.472717	
4049	0.70343	-0.68924	
4050	0.699768	-0.776367	
4051	0.697021	-0.75592	
4052	0.695496	-0.624695	
4053	0.693054	-0.389404	
4054	0.691833	-0.0790405	
4055	0.690308	0.239716	
4056	0.688782	0.455627	
4057	0.68512	0.517578	
4058	0.684509	0.489044	
4059	0.683594	0.438995	
4060	0.680542	0.395203	
4061	0.678711	0.361328	
4062	0.675354	0.331726	
4063	0.670776	0.299072	
4064	0.66925	0.261536	
4065	0.665894	0.215454	
4066	0.665588	0.0840759	
4067	0.661621	-0.175934	
4068	0.656433	-0.46524	
4069	0.654907	-0.674896	
4070	0.653076	-0.75882	
4071	0.65155	-0.7341	
4072	0.646057	-0.60379	
4073	0.644531	-0.372467	
4074	0.643921	-0.0688171	
4075	0.640564	0.243378	
4076	0.638123	0.453796	
4077	0.639343	0.511932	
4078	0.635681	0.483246	
4079	0.632019	0.427704	
4080	0.630798	0.381317	
4081	0.627747	0.34729	
4082	0.625	0.319977	
4083	0.621338	0.292511	
4084	0.620422	0.261536	
4085	0.61615	0.217896	
4086	0.612488	0.0907898	
4087	0.611572	-0.163422	
4088	0.610657	-0.445862	
4089	0.6073	-0.650177	
4090	0.606384	-0.732117	
4091	0.602722	-0.712738	
4092	0.602112	-0.588074	
4093	0.601807	-0.36499	
4094	0.597839	-0.0724792	
4095	0.596619	0.228882	
4096	0.596619	0.429993	
4097	0.596619	0.487518	
4098	0.592346	0.462036	
4099	0.591736	0.414734	
4100	0.592041	0.371857	
4101	0.591431	0.33905	
4102	0.59082	0.309906	
4103	0.587463	0.280304	
4104	0.587463	0.253143	
4105	0.586853	0.211029	
4106	0.586853	0.0878906	
4107	0.585938	-0.156555	
4108	0.583496	-0.426483	
4109	0.586853	-0.623474	
4110	0.582581	-0.700836	
4111	0.582275	-0.678406	
4112	0.582275	-0.558777	
4113	0.58197	-0.343933	
4114	0.58197	-0.063324	
4115	0.58075	0.223694	
4116	0.58075	0.41687	
4117	0.58136	0.472565	
4118	0.579224	0.445709	
4119	0.578003	0.398254	
4120	0.577087	0.356903	
4121	0.577698	0.322723	
4122	0.575867	0.29541	
4123	0.574951	0.267944	
4124	0.572205	0.239105	
4125	0.57251	0.202637	
4126	0.571594	0.0888062	
4127	0.57251	-0.142365	
4128	0.572205	-0.396576	
4129	0.568542	-0.581665	
4130	0.567627	-0.654297	
4131	0.567932	-0.634766	
4132	0.567322	-0.522003	
4133	0.567627	-0.317383	
4134	0.570068	-0.0512695	
4135	0.567627	0.220947	
4136	0.567017	0.401611	
4137	0.568542	0.451355	
4138	0.568542	0.42038	
4139	0.567932	0.373535	
4140	0.567322	0.333252	
4141	0.567017	0.30426	
4142	0.563965	0.281219	
4143	0.562439	0.256042	
4144	0.562744	0.22995	
4145	0.562439	0.191803	
4146	0.560303	0.0834656	
4147	0.559387	-0.134735	
4148	0.560913	-0.377197	
4149	0.558167	-0.552368	
4150	0.556946	-0.620575	
4151	0.557556	-0.598907	
4152	0.556335	-0.491943	
4153	0.55603	-0.305176	
4154	0.556641	-0.0552368	
4155	0.556335	0.203857	
4156	0.557251	0.378418	
4157	0.55603	0.426483	
4158	0.557251	0.403442	
4159	0.556335	0.363007	
4160	0.555725	0.325012	
4161	0.558167	0.296783	
4162	0.557861	0.271454	
4163	0.557251	0.248718	
4164	0.560608	0.224152	
4165	0.559082	0.189056	
4166	0.560608	0.0842285	
4167	0.561829	-0.121765	
4168	0.562439	-0.350342	
4169	0.562439	-0.518951	
4170	0.562744	-0.586243	
4171	0.562439	-0.569458	
4172	0.562439	-0.468903	
4173	0.567017	-0.285187	
4174	0.567627	-0.045166	
4175	0.567322	0.196533	
4176	0.567322	0.357971	
4177	0.567322	0.403442	
4178	0.567322	0.38208	
4179	0.567322	0.342102	
4180	0.563354	0.307617	
4181	0.563049	0.282593	
4182	0.562134	0.259399	
4183	0.562134	0.236511	
4184	0.561523	0.211945	
4185	0.560608	0.179291	
4186	0.557556	0.0823975	
4187	0.557556	-0.114441	
4188	0.553589	-0.3302	
4189	0.552368	-0.484924	
4190	0.553284	-0.547333	
4191	0.551758	-0.534363	
4192	0.547791	-0.440521	
4193	0.548096	-0.267944	
4194	0.547485	-0.0408936	
4195	0.548401	0.189819	
4196	0.543518	0.345459	
4197	0.542908	0.389557	
4198	0.542603	0.36972	
4199	0.542908	0.332336	
4200	0.53894	0.29892	
4201	0.53772	0.27298	
4202	0.53772	0.249023	
4203	0.536804	0.224304	
4204	0.532532	0.2005	
4205	0.531616	0.167999	
4206	0.528259	0.0740051	
4207	0.524292	-0.112152	
4208	0.523071	-0.320435	
4209	0.522461	-0.470886	
4210	0.518799	-0.529785	
4211	0.514526	-0.514374	
4212	0.513	-0.427704	
4213	0.513306	-0.261536	
4214	0.509644	-0.0437927	
4215	0.508423	0.177307	
4216	0.505371	0.325012	
4217	0.503235	0.368805	
4218	0.50354	0.349731	
4219	0.502625	0.3125	
4220	0.499573	0.280762	
4221	0.498047	0.2565	
4222	0.49408	0.236053	
4223	0.493469	0.21286	
4224	0.49408	0.190277	
4225	0.490417	0.160522	
4226	0.488281	0.0694275	
4227	0.485535	-0.109253	
4228	0.483704	-0.30777	
4229	0.484314	-0.453339	
4230	0.480957	-0.509491	
4231	0.479431	-0.492554	
4232	0.479126	-0.4039	
4233	0.47821	-0.245819	
4234	0.474548	-0.0360107	
4235	0.474243	0.17868	
4236	0.471802	0.319824	
4237	0.473022	0.358734	
4238	0.46936	0.337524	
4239	0.465698	0.302124	
4240	0.464783	0.273285	
4241	0.464478	0.250854	
4242	0.463867	0.23056	
4243	0.460205	0.208893	
4244	0.45929	0.185699	
4245	0.455322	0.157623	
4246	0.45105	0.0721741	
4247	0.449829	-0.0994873	
4248	0.446472	-0.293274	
4249	0.444336	-0.432739	
4250	0.440369	-0.485382	
4251	0.440063	-0.467682	
4252	0.435486	-0.379944	
4253	0.434875	-0.225067	
4254	0.43396	-0.0263977	
4255	0.430298	0.175934	
4256	0.429077	0.314789	
4257	0.425415	0.35553	
4258	0.423889	0.338745	
4259	0.421448	0.306854	
4260	0.417175	0.275574	
4261	0.415955	0.249634	
4262	0.412292	0.227966	
4263	0.409851	0.210419	
4264	0.405273	0.193176	
4265	0.401917	0.166016	
4266	0.397339	0.08255	
4267	0.392151	-0.0817871	
4268	0.391541	-0.265961	
4269	0.386963	-0.397034	
4270	0.38269	-0.448456	
4271	0.379944	-0.433197	
4272	0.376587	-0.356903	
4273	0.376587	-0.214996	
4274	0.37262	-0.0241089	
4275	0.370483	0.174103	
4276	0.367126	0.30838	
4277	0.362244	0.350189	
4278	0.360413	0.335236	
4279	0.355835	0.303192	
4280	0.352783	0.276031	
4281	0.350952	0.256042	
4282	0.34668	0.240173	
4283	0.343323	0.222015	
4284	0.341187	0.200043	
4285	0.337219	0.169983	
4286	0.333252	0.0898743	
4287	0.330505	-0.0679016	
4288	0.324707	-0.240936	
4289	0.323486	-0.364227	
4290	0.318298	-0.41275	
4291	0.316467	-0.400848	
4292	0.312805	-0.325012	
4293	0.309448	-0.18692	
4294	0.307617	-0.00442505	
4295	0.30365	0.183563	
4296	0.301819	0.307922	
4297	0.299072	0.340881	
4298	0.292969	0.323334	
4299	0.288086	0.293121	
4300	0.28656	0.266724	
4301	0.282593	0.245972	
4302	0.278931	0.224762	
4303	0.274353	0.205994	
4304	0.269775	0.184479	
4305	0.267029	0.155945	
4306	0.26062	0.0788879	
4307	0.254822	-0.0665283	
4308	0.25116	-0.229187	
4309	0.247803	-0.349121	
4310	0.241699	-0.394897	
4311	0.239563	-0.380249	
4312	0.237732	-0.30365	
4313	0.235291	-0.171967	
4314	0.230713	0.00259399	
4315	0.229492	0.179901	
4316	0.22522	0.298157	
4317	0.223694	0.331116	
4318	0.221252	0.315094	
4319	0.218811	0.287781	
4320	0.215149	0.259247	
4321	0.212708	0.23468	
4322	0.209961	0.214844	
4323	0.206299	0.197144	
4324	0.204163	0.180054	
4325	0.199585	0.154114	
4326	0.195313	0.0813293	
4327	0.19043	-0.06073	
4328	0.186768	-0.217896	
4329	0.185852	-0.334167	
4330	0.180359	-0.381165	
4331	0.174255	-0.369568	
4332	0.171204	-0.303192	
4333	0.166626	-0.18158	
4334	0.162354	-0.0201416	
4335	0.159607	0.147095	
4336	0.155945	0.257263	
4337	0.151672	0.288849	
4338	0.14679	0.272064	
4339	0.141296	0.243683	
4340	0.140076	0.215912	
4341	0.135498	0.193024	
4342	0.131836	0.170898	
4343	0.126343	0.151825	
4344	0.122375	0.134583	
4345	0.117188	0.109863	
4346	0.11261	0.0404358	
4347	0.108337	-0.0944519	
4348	0.105896	-0.243378	
4349	0.098877	-0.35141	
4350	0.0976563	-0.394287	
4351	0.0939941	-0.380859	
4352	0.088501	-0.312042	
4353	0.0836182	-0.193329	
4354	0.0817871	-0.035553	
4355	0.0787354	0.122986	
4356	0.0744629	0.228271	
4357	0.0692749	0.259552	
4358	0.0650024	0.24292	
4359	0.0601196	0.213928	
4360	0.0579834	0.188293	
4361	0.0524902	0.168762	
4362	0.0479126	0.154114	
4363	0.045166	0.138245	
4364	0.0402832	0.115967	
4365	0.0357056	0.0782776	
4366	0.0292969	-0.0187683	
4367	0.0250244	-0.161591	
4368	0.0204468	-0.288086	
4369	0.0180054	-0.359344	
4370	0.0112915	-0.370331	
4371	0.00854492	-0.333405	
4372	0.00518799	-0.242615	
4373	0.0012207	-0.110168	
4374	-0.00427246	0.0421143	
4375	-0.00854492	0.176544	
4376	-0.010376	0.239716	
4377	-0.0158691	0.241852	
4378	-0.0204468	0.221863	
4379	-0.022583	0.197906	
4380	-0.0253296	0.180511	
4381	-0.0302124	0.16571	
4382	-0.0341797	0.148315	
4383	-0.0372314	0.1297	
4384	-0.0427246	0.111542	
4385	-0.0445557	0.0765991	
4386	-0.050354	-0.0149536	
4387	-0.0537109	-0.149536	
4388	-0.0552368	-0.27298	
4389	-0.0582886	-0.342102	
4390	-0.0622559	-0.354004	
4391	-0.067749	-0.318298	
4392	-0.0692749	-0.229797	
4393	-0.072937	-0.100555	
4394	-0.0772095	0.0479126	
4395	-0.0820923	0.176086	
4396	-0.0842285	0.240326	
4397	-0.088501	0.248413	
4398	-0.093689	0.231934	
4399	-0.0964355	0.212708	
4400	-0.101013	0.201569	
4401	-0.10437	0.191956	
4402	-0.108643	0.184937	
4403	-0.11261	0.173798	
4404	-0.117188	0.161743	
4405	-0.12207	0.13092	
4406	-0.126038	0.0483704	
4407	-0.126953	-0.0694275	
4408	-0.131226	-0.174866	
4409	-0.135498	-0.231628	
4410	-0.137939	-0.232391	
4411	-0.142822	-0.188751	
4412	-0.146179	-0.0939941	
4413	-0.148621	0.045166	
4414	-0.152283	0.201874	
4415	-0.15625	0.336304	
4416	-0.160522	0.405579	
4417	-0.162354	0.415497	
4418	-0.162964	0.398407	
4419	-0.167542	0.38147	
4420	-0.172424	0.367432	
4421	-0.175781	0.353546	
4422	-0.177002	0.339966	
4423	-0.181885	0.3302	
4424	-0.186768	0.319214	
4425	-0.19043	0.286713	
4426	-0.194702	0.2005	
4427	-0.19928	0.0767517	
4428	-0.201416	-0.0401306	
4429	-0.20813	-0.110626	
4430	-0.209351	-0.132446	
4431	-0.213928	-0.111389	
4432	-0.216064	-0.0550842	
4433	-0.219421	0.0318909	
4434	-0.221863	0.129852	
4435	-0.228271	0.206604	
4436	-0.230713	0.224915	
4437	-0.233459	0.194092	
4438	-0.238647	0.148468	
4439	-0.241394	0.109406	
4440	-0.244446	0.0799561	
4441	-0.248108	0.0558472	
4442	-0.252686	0.0366211	
4443	-0.255127	0.0215149	
4444	-0.259399	0.00701904	
4445	-0.262756	-0.0218201	
4446	-0.265198	-0.0971985	
4447	-0.270386	-0.205841	
4448	-0.273438	-0.314178	
4449	-0.277405	-0.387421	
4450	-0.282593	-0.418091	
4451	-0.285339	-0.408478	
4452	-0.290222	-0.359802	
4453	-0.293884	-0.277252	
4454	-0.297241	-0.174255	
4455	-0.299988	-0.0761414	
4456	-0.30426	-0.0210571	
4457	-0.309448	-0.00640869	
4458	-0.312805	-0.00961304	
4459	-0.317078	-0.0140381	
4460	-0.321655	-0.0111389	
4461	-0.323486	-0.000152588	
4462	-0.328979	0.0120544	
4463	-0.333252	0.022583	
4464	-0.338135	0.0285339	
4465	-0.340576	0.0172424	
4466	-0.346985	-0.0413513	
4467	-0.352783	-0.135803	
4468	-0.357361	-0.224609	
4469	-0.361328	-0.271912	
4470	-0.366516	-0.278625	
4471	-0.370178	-0.249176	
4472	-0.375671	-0.182495	
4473	-0.378113	-0.0816345	
4474	-0.384827	0.0350952	
4475	-0.387268	0.134583	
4476	-0.392151	0.180817	
4477	-0.397034	0.181122	
4478	-0.402832	0.163116	
4479	-0.406494	0.143585	
4480	-0.412292	0.126495	
4481	-0.415649	0.114746	
4482	-0.421143	0.105438	
4483	-0.426941	0.0973511	
4484	-0.431824	0.0888062	
4485	-0.436401	0.0630188	
4486	-0.440063	-0.0038147	
4487	-0.444336	-0.101013	
4488	-0.449524	-0.187988	
4489	-0.450745	-0.239868	
4490	-0.458984	-0.248718	
4491	-0.461121	-0.2211	
4492	-0.466003	-0.158234	
4493	-0.46936	-0.0637817	
4494	-0.473022	0.0447083	
4495	-0.4776	0.136566	
4496	-0.480652	0.176392	
4497	-0.484009	0.177307	
4498	-0.488892	0.162659	
4499	-0.49408	0.146179	
4500	-0.497742	0.136261	
4501	-0.502625	0.126801	
4502	-0.503845	0.119934	
4503	-0.507813	0.109863	
4504	-0.51239	0.0978088	
4505	-0.514832	0.0732422	
4506	-0.519714	0.00976563	
4507	-0.523376	-0.0810242	
4508	-0.523987	-0.162354	
4509	-0.530396	-0.20401	
4510	-0.533142	-0.20874	
4511	-0.537415	-0.183868	
4512	-0.539246	-0.128174	
4513	-0.542297	-0.0444031	
4514	-0.543823	0.0523376	
4515	-0.548706	0.135651	
4516	-0.552979	0.177307	
4517	-0.556641	0.183411	
4518	-0.558777	0.168304	
4519	-0.56366	0.152283	
4520	-0.568542	0.138855	
4521	-0.572205	0.126953	
4522	-0.577393	0.11673	
4523	-0.58136	0.10788	
4524	-0.585327	0.0996399	
4525	-0.588074	0.0794983	
4526	-0.595398	0.0222778	
4527	-0.598755	-0.0610352	
4528	-0.603027	-0.135193	
4529	-0.606384	-0.177002	
4530	-0.610962	-0.181274	
4531	-0.61615	-0.158081	
4532	-0.621033	-0.107574	
4533	-0.621338	-0.032196	
4534	-0.626221	0.055542	
4535	-0.630493	0.128479	
4536	-0.632935	0.166321	
4537	-0.636597	0.16983	
4538	-0.638428	0.157623	
4539	-0.641174	0.141602	
4540	-0.645142	0.129547	
4541	-0.649719	0.119476	
4542	-0.655212	0.110626	
4543	-0.656738	0.100098	
4544	-0.661621	0.0912476	
4545	-0.664673	0.0709534	
4546	-0.665588	0.018158	
4547	-0.669861	-0.0569153	
4548	-0.674438	-0.123901	
4549	-0.679321	-0.158081	
4550	-0.680847	-0.16449	
4551	-0.68573	-0.145569	
4552	-0.691223	-0.098877	
4553	-0.69458	-0.0289917	
4554	-0.696106	0.0518799	
4555	-0.700684	0.12207	
4556	-0.705872	0.155182	
4557	-0.710144	0.15686	
4558	-0.713806	0.146484	
4559	-0.715637	0.134583	
4560	-0.718384	0.125122	
4561	-0.722961	0.11734	
4562	-0.727844	0.109863	
4563	-0.730286	0.104828	
4564	-0.734558	0.0967407	
4565	-0.73822	0.0785828	
4566	-0.742798	0.0323486	
4567	-0.747681	-0.0354004	
4568	-0.749207	-0.0941467	
4569	-0.753174	-0.124817	
4570	-0.753784	-0.127258	
4571	-0.757751	-0.106201	
4572	-0.759583	-0.0563049	
4573	-0.763245	0.00839233	
4574	-0.767822	0.0820923	
4575	-0.769043	0.143127	
4576	-0.770264	0.174408	
4577	-0.774536	0.177155	
4578	-0.777893	0.167084	
4579	-0.78186	0.158691	
4580	-0.784302	0.150604	
4581	-0.79071	0.142212	
4582	-0.791931	0.133972	
4583	-0.796814	0.126953	
4584	-0.798645	0.121307	
4585	-0.802917	0.106964	
4586	-0.808105	0.068512	
4587	-0.813904	0.0102234	
4588	-0.817871	-0.0416565	
4589	-0.821228	-0.0726318	
4590	-0.82489	-0.0776672	
4591	-0.830994	-0.0611877	
4592	-0.835876	-0.0193787	
4593	-0.838013	0.0428772	
4594	-0.84259	0.114288	
4595	-0.848083	0.171967	
4596	-0.852661	0.196838	
4597	-0.857544	0.197296	
4598	-0.862122	0.188141	
4599	-0.869751	0.178223	
4600	-0.875854	0.171204	
4601	-0.882568	0.167847	
4602	-0.887146	0.163422	
4603	-0.891724	0.156097	
4604	-0.895996	0.145569	
4605	-0.904846	0.129089	
4606	-0.911865	0.0914001	
4607	-0.915222	0.0369263	
4608	-0.9198	-0.0146484	
4609	-0.925598	-0.0436401	
4610	-0.931396	-0.0495911	
4611	-0.934753	-0.0308228	
4612	-0.939941	0.0106812	
4613	-0.945129	0.0653076	
4614	-0.950928	0.127411	
4615	-0.95459	0.182037	
4616	-0.958862	0.206451	
4617	-0.964661	0.206604	
4618	-0.969849	0.197754	
4619	-0.974426	0.187836	
4620	-0.978394	0.180206	
4621	-0.982361	0.173798	
4622	-0.987549	0.168152	
4623	-0.992126	0.163574	
4624	-0.997925	0.157623	
4625	-1.00189	0.143433	
4626	-1.00464	0.106354	
4627	-1.00861	0.052948	
4628	-1.01318	0.00564575	
4629	-1.01654	-0.0215149	
4630	-1.01959	-0.025177	
4631	-1.02356	-0.0117493	
4632	-1.02783	0.0221252	
4633	-1.0318	0.0709534	
4634	-1.03363	0.128326	
4635	-1.03638	0.176086	
4636	-1.03821	0.199127	
4637	-1.03851	0.19928	
4638	-1.04156	0.189362	
4639	-1.04248	0.178528	
4640	-1.04614	0.171204	
4641	-1.04645	0.163727	
4642	-1.04614	0.157471	
4643	-1.04553	0.149078	
4644	-1.04675	0.137024	
4645	-1.04797	0.123291	
4646	-1.04706	0.0892639	
4647	-1.04767	0.0402832	
4648	-1.04614	-0.00335693	
4649	-1.04645	-0.0262451	
4650	-1.04401	-0.0308228	
4651	-1.04309	-0.020752	
4652	-1.04248	0.00808716	
4653	-1.03912	0.052948	
4654	-1.03699	0.101318	
4655	-1.03271	0.143433	
4656	-1.03302	0.162048	
4657	-1.02844	0.160828	
4658	-1.02448	0.153961	
4659	-1.01837	0.142975	
4660	-1.01257	0.130768	
4661	-1.00739	0.12207	
4662	-1.00281	0.116119	
4663	-0.994873	0.1091	
4664	-0.98877	0.0976563	
4665	-0.982666	0.0823975	
4666	-0.975342	0.0482178	
4667	-0.969543	0.0012207	
4668	-0.959473	-0.0410461	
4669	-0.949097	-0.0671387	
4670	-0.939941	-0.0723267	
4671	-0.931091	-0.0616455	
4672	-0.921021	-0.032959	
4673	-0.911255	0.00656128	
4674	-0.900879	0.0486755	
4675	-0.891418	0.0871277	
4676	-0.880737	0.103455	
4677	-0.867004	0.103455	
4678	-0.857239	0.0946045	
4679	-0.845947	0.0846863	
4680	-0.83252	0.0752258	
4681	-0.822144	0.0637817	
4682	-0.808716	0.0541687	
4683	-0.794678	0.0466919	
4684	-0.782166	0.0411987	
4685	-0.769958	0.030365	
4686	-0.755615	-0.000305176	
4687	-0.740967	-0.0436401	
4688	-0.726013	-0.0808716	
4689	-0.711975	-0.102081	
4690	-0.697327	-0.107727	
4691	-0.682373	-0.100555	
4692	-0.667419	-0.0782776	
4693	-0.651245	-0.0419617	
4694	-0.636292	0.00183105	
4695	-0.621033	0.0387573	
4696	-0.603638	0.0561523	
4697	-0.588684	0.0556946	
4698	-0.573425	0.0482178	
4699	-0.558167	0.0395203	
4700	-0.541687	0.0294495	
4701	-0.523682	0.019989	
4702	-0.508423	0.0144958	
4703	-0.491028	0.00961304	
4704	-0.475769	0.00579834	
4705	-0.456848	-0.00518799	
4706	-0.440979	-0.0341797	
4707	-0.424805	-0.0724792	
4708	-0.406494	-0.107422	
4709	-0.387878	-0.127716	
4710	-0.368958	-0.13382	
4711	-0.353699	-0.12085	
4712	-0.334473	-0.0935364	
4713	-0.315552	-0.0563049	
4714	-0.299377	-0.018158	
4715	-0.279541	0.0141907	
4716	-0.260315	0.0288391	
4717	-0.240784	0.0289917	
4718	-0.222168	0.0224304	
4719	-0.205994	0.0169373	
4720	-0.186768	0.00991821	
4721	-0.167542	0.00411987	
4722	-0.151367	-0.00259399	
4723	-0.133362	-0.00869751	
4724	-0.116882	-0.0134277	
4725	-0.0985718	-0.0218201	
4726	-0.0802612	-0.0444031	
4727	-0.0646973	-0.0779724	
4728	-0.0448608	-0.110321	
4729	-0.0292969	-0.128632	
4730	-0.0134277	-0.131226	
4731	0.00396729	-0.121002	
4732	0.0201416	-0.0959778	
4733	0.0387573	-0.0602722	
4734	0.0540161	-0.0238037	
4735	0.0726318	0.00869751	
4736	0.0869751	0.0256348	
4737	0.102234	0.0283813	
4738	0.120544	0.0234985	
4739	0.136108	0.0166321	
4740	0.150757	0.00823975	
4741	0.166321	-0.000610352	
4742	0.1828	-0.00732422	
4743	0.195313	-0.0105286	
4744	0.209961	-0.0146484	
4745	0.227051	-0.025177	
4746	0.24231	-0.0466919	
4747	0.256348	-0.0798035	
4748	0.269165	-0.10788	
4749	0.283508	-0.121002	
4750	0.298157	-0.121613	
4751	0.311584	-0.111084	
4752	0.325012	-0.0907898	
4753	0.337524	-0.0596619	
4754	0.351563	-0.0254822	
4755	0.361633	0.00427246	
4756	0.375671	0.0189209	
4757	0.385742	0.0213623	
4758	0.399475	0.0175476	
4759	0.410461	0.0135803	
4760	0.422363	0.00930786	
4761	0.429382	0.00549316	
4762	0.440674	0.00289917	
4763	0.45166	-0.00198364	
4764	0.46051	-0.00732422	
4765	0.468445	-0.0178528	
4766	0.478821	-0.0386047	
4767	0.488586	-0.0679016	
4768	0.49469	-0.0932312	
4769	0.503235	-0.107269	
4770	0.512085	-0.109253	
4771	0.517578	-0.100708	
4772	0.525818	-0.0793457	
4773	0.532837	-0.0497437	
4774	0.53894	-0.015564	
4775	0.545654	0.0137329	
4776	0.552979	0.0274658	
4777	0.561218	0.0286865	
4778	0.566101	0.0263977	
4779	0.572205	0.0192261	
4780	0.577698	0.0111389	
4781	0.583191	0.00747681	
4782	0.59021	0.00442505	
4783	0.596313	0.000610352	
4784	0.602722	-0.00259399	
4785	0.60791	-0.0111389	
4786	0.611267	-0.030365	
4787	0.61615	-0.0576782	
4788	0.622253	-0.0843811	
4789	0.625916	-0.0975037	
4790	0.629272	-0.0994873	
4791	0.634155	-0.0918579	
4792	0.639038	-0.0740051	
4793	0.643921	-0.04776	
4794	0.646667	-0.0158691	
4795	0.649719	0.012207	
4796	0.654297	0.0253296	
4797	0.658875	0.0241089	
4798	0.65918	0.0205994	
4799	0.664368	0.015564	
4800	0.664673	0.0138855	
4801	0.668335	0.00946045	
4802	0.669861	0.00747681	
4803	0.673218	0.00228882	
4804	0.675354	-0.00335693	
4805	0.678711	-0.0134277	
4806	0.679016	-0.0308228	
4807	0.680542	-0.0553894	
4808	0.684509	-0.0804138	
