Local: ,2025-05-22 00:00:00+02:00,tz_sec ,7200
Linux Epoch (ms):,1747864800000.0
PPG Timestamp,PPG,ADXL Timestamp,X,Y,Z
1747908198359.031,205591,1747908198340.094,-32,16,-153
1747908198378.875,205658,1747908198359.937,-28,12,-153
1747908198398.719,205748,1747908198379.813,-39,-1,-160
1747908198418.563,205871,1747908198399.656,-40,4,-160
1747908198438.438,205978,1747908198419.5,-33,-2,-154
1747908198458.281,206107,1747908198439.344,-36,4,-157
1747908198478.125,206229,1747908198459.219,-49,-5,-156
1747908198497.969,206377,1747908198479.063,-47,-8,-157
1747908198517.844,206544,1747908198498.906,-42,-13,-158
1747908198537.719,206725,1747908198518.719,-39,-8,-157
1747908198557.562,206898,1747908198538.625,-49,-8,-161
1747908198577.406,207020,1747908198558.5,-40,-8,-154
1747908198597.281,207139,1747908198578.3132,-49,-2,-153
1747908198617.156,207279,1747908198598.219,-35,-2,-154
1747908198637.0,207437,1747908198618.062,-9,-7,-159
1747908198656.844,207586,1747908198637.938,-26,-4,-157
1747908198676.688,207742,1747908198657.719,-24,-2,-154
1747908198696.531,207868,1747908198677.594,-36,-1,-162
1747908198716.3442,208019,1747908198697.437,-33,-8,-163
1747908198736.187,208097,1747908198717.312,-33,-12,-160
1747908198756.062,208195,1747908198737.125,-41,-4,-169
1747908198775.906,208261,1747908198756.969,-45,-7,-160
1747908198795.719,208338,1747908198776.844,-36,-2,-148
1747908198815.594,208376,1747908198796.6868,-47,-2,-152
1747908198835.437,208487,1747908198816.5,-32,1,-154
1747908198855.281,208560,1747908198836.344,-41,3,-153
1747908198875.125,208640,1747908198856.219,-23,3,-156
1747908198895.0,208744,1747908198876.031,-29,6,-157
1747908198914.844,208799,1747908198895.937,-33,0,-161
1747908198934.687,208835,1747908198915.75,-33,5,-154
1747908198954.531,208895,1747908198935.625,-28,-1,-154
1747908198974.406,208916,1747908198955.469,-29,-4,-166
1747908198994.25,208926,1747908198975.312,-34,3,-167
1747908199014.125,208925,1747908198995.156,-36,-1,-160
1747908199033.937,208945,1747908199015.031,-45,-1,-160
1747908199053.813,208940,1747908199034.875,-31,-5,-153
1747908199073.656,208947,1747908199054.719,-35,-7,-154
1747908199093.5,208947,1747908199074.562,-47,-8,-161
1747908199113.312,208955,1747908199094.406,-33,-5,-159
1747908199133.188,208953,1747908199114.281,-46,-2,-154
1747908199153.031,208995,1747908199134.094,-34,4,-157
1747908199172.906,208990,1747908199153.937,-41,6,-153
1747908199192.687,209031,1747908199173.812,-40,3,-154
1747908199212.562,209079,1747908199193.625,-34,3,-162
1747908199232.406,209127,1747908199213.5,-41,-3,-161
1747908199252.25,209161,1747908199233.313,-29,1,-154
1747908199272.125,209216,1747908199253.156,-38,1,-161
1747908199291.969,209262,1747908199273.031,-34,1,-157
1747908199311.844,209342,1747908199292.906,-34,-4,-159
1747908199331.719,209411,1747908199312.75,-29,0,-161
1747908199351.562,209532,1747908199332.625,-28,3,-161
1747908199371.406,209661,1747908199352.469,-45,-4,-159
1747908199391.25,209770,1747908199372.313,-23,1,-160
1747908199411.125,209883,1747908199392.156,-26,-2,-156
1747908199430.969,210027,1747908199412.0,-25,-8,-161
1747908199450.812,210167,1747908199431.875,-34,-6,-152
1747908199470.625,210292,1747908199451.75,-40,-2,-148
1747908199490.5,210416,1747908199471.563,-31,-7,-160
1747908199510.375,210533,1747908199491.438,-39,0,-161
1747908199530.156,210645,1747908199511.281,-45,-8,-154
1747908199550.031,210738,1747908199531.094,-36,2,-149
1747908199569.875,210844,1747908199550.937,-45,6,-157
1747908199589.719,210940,1747908199570.781,-37,3,-154
1747908199609.5632,211031,1747908199590.656,-42,7,-157
1747908199629.406,211097,1747908199610.5,-42,-1,-154
1747908199649.25,211210,1747908199630.344,-32,-4,-161
1747908199669.125,211302,1747908199650.156,-40,1,-148
1747908199689.0,211392,1747908199670.031,-39,3,-152
1747908199708.781,211469,1747908199689.9058,-40,12,-160
1747908199728.656,211543,1747908199709.687,-31,3,-162
1747908199748.531,211655,1747908199729.594,-42,-1,-161
1747908199768.344,211751,1747908199749.438,-36,8,-177
1747908199788.219,211888,1747908199769.281,-34,-2,-160
1747908199808.063,212005,1747908199789.125,-34,3,-153
1747908199827.906,212160,1747908199808.969,-36,-1,-154
1747908199847.75,212274,1747908199828.844,-40,-4,-154
1747908199867.594,212383,1747908199848.688,-40,-1,-161
1747908199887.469,212520,1747908199868.5,-25,3,-158
1747908199907.344,212655,1747908199888.375,-29,6,-159
1747908199927.125,212815,1747908199908.25,-39,1,-157
1747908199947.0,212937,1747908199928.063,-40,3,-160
1747908199966.844,213088,1747908199947.906,-39,-4,-157
1747908199986.719,213216,1747908199967.781,-39,3,-162
1747908200006.562,213373,1747908199987.625,-32,-1,-161
1747908200026.406,213516,1747908200007.5,-44,-4,-153
1747908200046.25,213661,1747908200027.344,-40,0,-157
1747908200066.125,213764,1747908200047.188,-39,-2,-158
1747908200085.938,213893,1747908200067.031,-36,-6,-161
1747908200105.781,213988,1747908200086.844,-28,2,-146
1747908200125.656,214102,1747908200106.719,-32,1,-149
1747908200145.5,214252,1747908200126.563,-41,2,-151
1747908200165.344,214380,1747908200146.437,-40,5,-157
1747908200185.187,214495,1747908200166.25,-31,3,-159
1747908200205.031,214643,1747908200186.156,-31,2,-154
1747908200224.875,214740,1747908200205.938,-39,3,-157
1747908200244.781,214879,1747908200225.781,-36,-2,-153
1747908200264.563,215015,1747908200245.687,-40,-2,-157
1747908200284.437,215158,1747908200265.5,-36,-1,-160
1747908200304.281,215283,1747908200285.312,-31,-5,-153
1747908200324.188,215415,1747908200305.188,-33,-7,-153
1747908200344.0,215516,1747908200325.094,-31,4,-153
1747908200363.875,215602,1747908200344.906,-36,-1,-159
1747908200383.719,215690,1747908200364.781,-45,0,-157
1747908200403.594,215794,1747908200384.625,-29,1,-157
1747908200423.406,215905,1747908200404.5,-28,-1,-157
1747908200443.281,216056,1747908200424.375,-33,0,-161
1747908200463.156,216231,1747908200444.187,-44,3,-160
1747908200483.031,216480,1747908200464.063,-40,-2,-161
1747908200502.844,216677,1747908200483.938,-36,-1,-160
1747908200522.75,216825,1747908200503.781,-32,3,-159
1747908200542.625,216931,1747908200523.656,-31,-7,-161
1747908200562.469,217069,1747908200543.563,-32,-1,-162
1747908200582.313,217209,1747908200563.406,-26,-4,-161
1747908200602.188,217356,1747908200583.281,-26,-4,-154
1747908200622.062,217465,1747908200603.094,-42,1,-153
1747908200641.906,217524,1747908200623.0,-32,6,-161
1747908200661.75,217535,1747908200642.844,-20,-5,-161
1747908200681.6558,217488,1747908200662.719,-31,-1,-152
1747908200701.531,217455,1747908200682.562,-34,-4,-154
1747908200721.375,217354,1747908200702.437,-24,-1,-156
1747908200741.25,217267,1747908200722.313,-29,-1,-157
1747908200761.125,217209,1747908200742.188,-31,-4,-168
1747908200781.0,217138,1747908200762.031,-32,14,-157
1747908200800.812,217090,1747908200781.906,-29,2,-161
1747908200820.688,217077,1747908200801.75,-32,-2,-153
1747908200840.594,217097,1747908200821.594,-29,-7,-148
1747908200860.469,217170,1747908200841.5,-45,-1,-161
1747908200880.312,217276,1747908200861.344,-31,-2,-160
1747908200900.156,217385,1747908200881.219,-31,-1,-157
1747908200920.063,217511,1747908200901.063,-31,-2,-159
1747908200939.937,217654,1747908200920.937,-32,-4,-160
1747908200959.75,217792,1747908200940.844,-29,-2,-157
1747908200979.656,217924,1747908200960.6882,-32,-3,-157
1747908200999.5,218035,1747908200980.531,-32,-1,-156
1747908201019.375,218187,1747908201000.406,-29,-1,-157
1747908201039.219,218270,1747908201020.312,-29,1,-154
1747908201059.094,218328,1747908201040.188,-19,4,-153
1747908201078.969,218381,1747908201059.969,-33,0,-159
1747908201098.844,218421,1747908201079.875,-40,3,-157
1747908201118.656,218463,1747908201099.75,-41,28,-161
1747908201138.562,218538,1747908201119.625,-26,-1,-160
1747908201158.438,218592,1747908201139.469,-32,-4,-154
1747908201178.281,218669,1747908201159.312,-42,-9,-144
1747908201198.125,218702,1747908201179.25,-34,1,-156
1747908201217.969,218782,1747908201199.063,-41,3,-157
1747908201237.844,218835,1747908201218.875,-40,-4,-165
1747908201257.719,218916,1747908201238.75,-26,-6,-154
1747908201277.531,218961,1747908201258.625,-29,-1,-162
1747908201297.375,219021,1747908201278.469,-32,-2,-162
1747908201317.25,219059,1747908201298.313,-29,0,-161
1747908201337.094,219145,1747908201318.156,-40,-1,-153
1747908201356.906,219205,1747908201338.0,-36,3,-154
1747908201376.844,219268,1747908201357.875,-40,-1,-161
1747908201396.625,219376,1747908201377.75,-31,1,-159
1747908201416.5,219467,1747908201397.531,-28,-1,-152
1747908201436.313,219552,1747908201417.406,-39,-4,-160
1747908201456.156,219656,1747908201437.25,-33,16,-160
1747908201476.156,219766,1747908201457.062,-29,0,-157
1747908201495.875,219867,1747908201477.063,-37,1,-159
1747908201515.719,219993,1747908201496.781,-37,1,-137
1747908201535.594,220089,1747908201516.687,-32,7,-162
1747908201555.437,220227,1747908201536.5,-40,-2,-153
1747908201575.312,220334,1747908201556.344,-34,-1,-167
1747908201595.156,220443,1747908201576.25,-40,-1,-153
1747908201615.031,220548,1747908201596.094,-28,-4,-159
1747908201634.875,220639,1747908201615.969,-31,-2,-157
1747908201654.719,220769,1747908201635.781,-40,-1,-148
1747908201674.531,220894,1747908201655.656,-36,6,-156
1747908201694.406,220999,1747908201675.469,-32,-1,-157
1747908201714.281,221076,1747908201695.312,-32,-1,-157
1747908201734.156,221153,1747908201715.219,-29,3,-158
1747908201753.969,221236,1747908201735.031,-35,0,-160
1747908201773.844,221312,1747908201754.938,-31,-8,-161
1747908201793.688,221351,1747908201774.75,-20,-1,-154
1747908201813.562,221411,1747908201794.594,-34,-1,-154
1747908201833.375,221460,1747908201814.469,-29,-8,-154
1747908201853.219,221549,1747908201834.313,-36,-1,-153
1747908201873.094,221590,1747908201854.156,-29,-5,-153
1747908201892.969,221677,1747908201874.031,-20,-8,-161
1747908201912.812,221749,1747908201893.844,-36,-3,-156
1747908201932.656,221826,1747908201913.719,-36,4,-157
1747908201952.5,221911,1747908201933.594,-40,1,-159
1747908201972.375,222003,1747908201953.438,-32,-1,-158
1747908201992.219,222072,1747908201973.281,-31,3,-161
1747908202012.062,222147,1747908201993.156,-44,-1,-157
1747908202031.938,222239,1747908202013.0,-45,-4,-153
1747908202051.813,222296,1747908202032.875,-40,1,-161
1747908202071.625,222371,1747908202052.7192,-46,-4,-164
1747908202091.5,222446,1747908202072.594,-31,3,-162
1747908202111.344,222527,1747908202092.406,-32,-1,-160
1747908202131.219,222603,1747908202112.281,-24,-4,-161
1747908202151.063,222692,1747908202132.156,-27,-3,-161
1747908202171.031,222770,1747908202152.0,-32,-1,-162
1747908202190.75,222835,1747908202171.844,-28,-13,-161
1747908202210.625,222910,1747908202191.688,-29,-2,-161
1747908202230.469,223004,1747908202211.531,-29,-6,-156
1747908202250.313,223078,1747908202231.344,-29,-5,-150
1747908202270.187,223177,1747908202251.25,-40,1,-157
1747908202290.062,223257,1747908202271.094,-26,-1,-155
1747908202309.906,223333,1747908202291.0308,-29,0,-161
1747908202329.781,223421,1747908202310.844,-42,3,-153
1747908202349.625,223483,1747908202330.719,-29,-3,-160
1747908202369.531,223578,1747908202350.563,-40,0,-154
1747908202389.375,223639,1747908202370.438,-40,3,-158
1747908202409.219,223672,1747908202390.312,-29,3,-159
1747908202429.125,223701,1747908202410.156,-29,6,-161
1747908202449.0,223679,1747908202430.031,-29,-4,-157
1747908202468.844,223675,1747908202449.906,-9,0,-161
1747908202488.719,223672,1747908202469.781,-45,-2,-152
1747908202508.594,223670,1747908202489.625,-41,1,-159
1747908202528.469,223669,1747908202509.531,-45,15,-154
1747908202548.344,223667,1747908202529.375,-39,0,-157
1747908202568.219,223691,1747908202549.2808,-42,-2,-150
1747908202588.094,223709,1747908202569.094,-34,2,-145
1747908202607.969,223712,1747908202589.0,-36,1,-154
1747908202627.813,223754,1747908202608.906,-32,-2,-161
1747908202647.656,223779,1747908202628.75,-29,-2,-152
1747908202667.531,223794,1747908202648.594,-26,3,-161
1747908202687.406,223824,1747908202668.469,-29,-2,-154
1747908202707.25,223834,1747908202688.313,-45,-2,-153
1747908202727.094,223848,1747908202708.188,-37,-3,-161
1747908202746.938,223863,1747908202728.0,-40,-1,-153
1747908202766.812,223881,1747908202747.875,-49,-4,-157
1747908202786.625,223890,1747908202767.75,-32,-1,-162
1747908202806.5,223928,1747908202787.563,-36,4,-161
1747908202826.375,223953,1747908202807.437,-40,1,-154
1747908202846.219,223990,1747908202827.281,-40,3,-154
1747908202866.062,223997,1747908202847.156,-32,-8,-154
1747908202885.938,224043,1747908202867.0,-39,1,-153
1747908202905.781,224093,1747908202886.844,-32,-1,-161
1747908202925.625,224107,1747908202906.687,-31,16,-156
1747908202945.5,224146,1747908202926.562,-31,1,-153
1747908202965.344,224187,1747908202946.438,-40,-2,-160
1747908202985.188,224241,1747908202966.25,-37,1,-156
1747908203005.063,224302,1747908202986.094,-40,4,-157
1747908203024.875,224361,1747908203005.969,-49,7,-157
1747908203044.75,224371,1747908203025.906,-47,9,-153
1747908203064.594,224372,1747908203045.656,-47,15,-146
1747908203084.438,224317,1747908203065.5,-66,11,-157
1747908203104.25,224305,1747908203085.344,-66,-2,-159
1747908203124.25,224373,1747908203105.187,-56,-13,-161
1747908203143.937,224470,1747908203125.125,-53,-9,-154
1747908203163.8132,224685,1747908203144.844,-42,-15,-149
1747908203183.656,224849,1747908203164.719,-49,-12,-138
1747908203203.469,225044,1747908203184.594,-32,-20,-145
1747908203223.344,225233,1747908203204.406,-21,-18,-152
1747908203243.219,225417,1747908203224.25,-20,-21,-149
1747908203263.031,225553,1747908203244.125,-10,-8,-161
1747908203282.875,225661,1747908203263.969,16,-13,-178
1747908203302.7192,225741,1747908203283.844,28,-8,-193
1747908203322.594,225802,1747908203303.625,25,-8,-176
1747908203342.438,225913,1747908203323.5,26,-9,-181
1747908203362.25,225941,1747908203343.375,28,-12,-170
1747908203382.125,225947,1747908203363.187,25,-5,-163
1747908203402.031,225908,1747908203383.0618,20,-8,-161
1747908203421.844,225858,1747908203402.938,16,-7,-149
1747908203441.688,225814,1747908203422.75,15,-7,-156
1747908203461.531,225706,1747908203442.656,3,-2,-154
1747908203481.406,225623,1747908203462.469,-23,6,-157
1747908203501.281,225613,1747908203482.312,-34,3,-162
1747908203521.094,225623,1747908203502.219,-44,9,-154
1747908203540.969,225662,1747908203522.063,-53,7,-144
1747908203560.844,225814,1747908203541.875,-58,11,-128
1747908203580.781,225979,1747908203561.75,-73,15,-125
1747908203600.5,226111,1747908203581.625,-97,-13,-113
1747908203620.375,226108,1747908203601.469,-136,-20,-121
1747908203640.219,226023,1747908203621.281,-136,-25,-121
1747908203660.094,225890,1747908203641.156,-144,-20,-112
1747908203679.9368,225739,1747908203660.969,-152,-15,-112
1747908203699.75,225556,1747908203680.875,-153,-4,-106
1747908203719.625,225282,1747908203700.656,-156,7,-109
1747908203739.5,224919,1747908203720.531,-150,4,-114
1747908203759.312,224505,1747908203740.406,-136,-2,-114
1747908203779.156,224070,1747908203760.25,-122,-5,-116
1747908203799.156,223635,1747908203780.063,-122,-4,-113
1747908203818.875,223227,1747908203800.062,-105,-2,-122
1747908203838.687,222904,1747908203819.781,-81,-17,-141
1747908203858.562,222686,1747908203839.625,-61,-20,-147
1747908203878.438,222521,1747908203859.469,-49,-36,-128
1747908203898.281,222409,1747908203879.313,-16,-26,-125
1747908203918.25,222303,1747908203899.187,3,-16,-153
1747908203937.969,222179,1747908203919.062,7,-13,-161
1747908203957.844,222125,1747908203938.875,28,-9,-160
1747908203977.688,222124,1747908203958.75,39,-1,-160
1747908203997.531,221994,1747908203978.625,52,7,-176
1747908204017.406,221808,1747908203998.5,51,7,-192
1747908204037.281,221639,1747908204018.344,57,15,-205
1747908204057.188,221559,1747908204038.188,70,-4,-192
1747908204077.0,221527,1747908204058.094,59,-15,-190
1747908204096.844,221577,1747908204077.9368,33,-20,-185
1747908204116.719,221622,1747908204097.781,35,-25,-192
1747908204136.594,221680,1747908204117.656,23,-30,-189
1747908204156.406,221670,1747908204137.5,24,-29,-191
1747908204176.281,221708,1747908204157.375,19,-29,-185
1747908204196.156,221682,1747908204177.219,15,-27,-177
1747908204216.031,221758,1747908204197.031,35,-23,-160
1747908204235.844,221886,1747908204216.906,15,-18,-152
1747908204255.719,222138,1747908204236.75,4,-13,-159
1747908204275.594,222427,1747908204256.625,-17,-1,-154
1747908204295.469,222726,1747908204276.5,-29,4,-157
1747908204315.344,223003,1747908204296.375,-55,7,-148
1747908204335.188,223267,1747908204316.25,-64,5,-140
1747908204355.031,223469,1747908204336.094,-61,17,-145
1747908204374.906,223595,1747908204355.937,-61,18,-141
1747908204394.719,223741,1747908204375.813,-68,19,-127
1747908204414.594,223872,1747908204395.656,-90,16,-113
1747908204434.406,224029,1747908204415.5,-113,-2,-106
1747908204454.281,224099,1747908204435.437,-128,-23,-119
1747908204474.125,224066,1747908204455.188,-141,-24,-116
1747908204493.969,223865,1747908204475.094,-148,-12,-118
1747908204513.969,223557,1747908204494.906,-151,6,-126
1747908204533.719,223256,1747908204514.875,-149,14,-125
1747908204553.531,222856,1747908204534.656,-140,22,-128
1747908204573.406,222430,1747908204554.469,-144,17,-131
1747908204593.281,221993,1747908204574.281,-132,8,-141
1747908204613.125,221637,1747908204594.156,-114,-8,-125
1747908204632.937,221316,1747908204614.031,-90,-15,-116
1747908204652.812,220976,1747908204633.906,-77,-2,-141
1747908204672.656,220543,1747908204653.688,-79,-7,-153
1747908204692.531,220212,1747908204673.625,-58,-9,-164
1747908204712.344,220032,1747908204693.437,-33,-9,-150
1747908204732.219,220201,1747908204713.281,-7,1,-157
1747908204752.094,220814,1747908204733.094,9,4,-153
1747908204771.969,221808,1747908204753.031,15,12,-153
1747908204791.781,222578,1747908204772.906,31,7,-153
1747908204811.625,223044,1747908204792.75,28,12,-164
1747908204831.5,223329,1747908204812.563,46,9,-173
1747908204851.344,223583,1747908204832.438,40,3,-177
1747908204871.188,223848,1747908204852.281,47,0,-177
1747908204891.094,224047,1747908204872.156,44,-4,-177
1747908204910.969,224300,1747908204891.937,40,-13,-176
1747908204930.813,224589,1747908204911.875,24,-22,-188
1747908204950.594,224888,1747908204931.6558,25,-35,-185
1747908204970.469,225028,1747908204951.531,17,-28,-190
1747908204990.344,224928,1747908204971.375,7,-32,-192
1747908205010.219,224536,1747908204991.25,22,-10,-181
1747908205030.031,223967,1747908205011.125,24,-29,-166
1747908205049.875,223486,1747908205030.969,23,-26,-141
1747908205069.75,223216,1747908205050.781,7,-16,-145
1747908205089.625,223213,1747908205070.656,-30,-10,-153
1747908205109.438,223174,1747908205090.563,-76,-10,-186
1747908205129.313,223003,1747908205110.406,-113,-5,-210
1747908205149.219,222611,1747908205130.25,-117,-9,-202
1747908205169.062,222166,1747908205150.125,-90,-29,-190
1747908205188.906,221720,1747908205169.938,-65,-10,-160
1747908205208.75,221324,1747908205189.844,-8,-3,-114
1747908205228.625,220988,1747908205209.687,30,3,-56
1747908205248.5,221158,1747908205229.531,4,-9,-41
1747908205268.312,221700,1747908205249.406,-60,7,-50
1747908205288.188,222194,1747908205269.281,-113,35,-58
1747908205308.063,222490,1747908205289.094,-149,41,-64
1747908205328.0,222701,1747908205308.969,-200,33,-95
1747908205347.719,222798,1747908205328.813,-240,33,-137
1747908205367.594,222783,1747908205348.688,-237,36,-158
1747908205387.469,222645,1747908205368.469,-213,39,-128
1747908205407.312,222404,1747908205388.344,-178,33,-104
1747908205427.156,222125,1747908205408.219,-154,20,-95
1747908205447.0,221847,1747908205428.125,-137,6,-105
1747908205466.875,221469,1747908205447.906,-113,1,-121
1747908205486.75,221098,1747908205467.75,-111,-8,-125
1747908205506.562,220720,1747908205487.687,-100,-16,-126
1747908205526.437,220314,1747908205507.5,-84,-23,-145
1747908205546.313,219822,1747908205527.344,-70,-25,-154
1747908205566.156,219327,1747908205547.219,-50,-29,-161
1747908205586.0,218941,1747908205567.062,-25,-25,-160
1747908205605.844,218749,1747908205586.937,12,-16,-146
1747908205625.719,218630,1747908205606.781,25,-12,-159
1747908205645.625,218505,1747908205626.625,44,-11,-152
1747908205665.469,218488,1747908205646.531,56,-12,-153
1747908205685.344,218527,1747908205666.406,57,-9,-157
1747908205705.219,218551,1747908205686.25,72,4,-161
1747908205725.063,218502,1747908205706.094,83,14,-185
1747908205744.906,218449,1747908205725.937,80,11,-193
1747908205764.75,218398,1747908205745.812,86,19,-192
1747908205784.594,218292,1747908205765.656,76,12,-201
1747908205804.469,218207,1747908205785.5,48,3,-192
1747908205824.281,218112,1747908205805.375,33,-8,-192
1747908205844.156,218013,1747908205825.219,40,-13,-200
1747908205864.0,217944,1747908205845.125,40,-12,-188
1747908205883.875,217918,1747908205864.906,35,-13,-169
1747908205903.688,217949,1747908205884.7808,30,-15,-150
1747908205923.531,218174,1747908205904.625,17,-14,-142
1747908205943.5,218539,1747908205924.469,1,-15,-146
1747908205963.25,219133,1747908205944.406,-28,-8,-146
1747908205983.063,219759,1747908205964.125,-42,6,-140
1747908206002.906,220206,1747908205984.031,-63,12,-145
1747908206022.781,220517,1747908206003.875,-81,24,-138
1747908206042.625,220713,1747908206023.6868,-84,9,-124
1747908206062.5,220859,1747908206043.531,-99,-8,-115
1747908206082.313,221045,1747908206063.406,-117,-32,-129
1747908206102.188,221248,1747908206083.25,-132,-37,-121
1747908206122.031,221436,1747908206103.094,-162,-40,-122
1747908206141.906,221548,1747908206122.969,-168,-25,-119
1747908206161.75,221625,1747908206142.813,-174,-10,-113
1747908206181.594,221653,1747908206162.688,-169,7,-113
1747908206201.469,221661,1747908206182.562,-159,15,-121
1747908206221.344,221683,1747908206202.375,-153,20,-121
1747908206241.156,221733,1747908206222.25,-148,16,-118
1747908206261.031,221750,1747908206242.094,-144,12,-113
1747908206280.937,221797,1747908206261.937,-140,6,-113
1747908206300.75,221837,1747908206281.844,-114,-4,-125
1747908206320.594,221812,1747908206301.656,-100,3,-135
1747908206340.469,221735,1747908206321.531,-89,-2,-128
1747908206360.313,221556,1747908206341.375,-81,-16,-128
1747908206380.156,221321,1747908206361.219,-61,-18,-128
1747908206400.0,221043,1747908206381.094,-44,-24,-158
1747908206419.844,220783,1747908206400.938,-17,-33,-144
1747908206439.719,220567,1747908206420.813,-4,-16,-145
1747908206459.563,220330,1747908206440.656,11,-9,-141
1747908206479.406,220090,1747908206460.469,32,-1,-165
1747908206499.281,219812,1747908206480.375,43,6,-164
1747908206519.156,219560,1747908206500.1882,65,12,-177
1747908206539.0,219248,1747908206520.062,72,25,-189
1747908206558.812,218999,1747908206539.937,72,24,-192
1747908206578.656,218807,1747908206559.75,63,3,-201
1747908206598.531,218642,1747908206579.594,48,-4,-189
1747908206618.406,218666,1747908206599.438,28,-8,-189
1747908206638.281,218705,1747908206619.312,32,-15,-204
1747908206658.094,218816,1747908206639.156,19,-16,-192
1747908206677.937,218981,1747908206658.969,35,-17,-185
1747908206697.781,219152,1747908206678.875,44,-14,-172
1747908206717.625,219244,1747908206698.688,17,-13,-159
1747908206737.5,219321,1747908206718.5618,7,-5,-153
1747908206757.344,219403,1747908206738.437,-2,-1,-152
1747908206777.219,219502,1747908206758.25,-41,4,-151
1747908206797.0632,219619,1747908206778.156,-49,19,-153
1747908206816.937,219693,1747908206798.0,-57,27,-137
1747908206836.812,219796,1747908206817.781,-69,22,-112
1747908206856.625,219916,1747908206837.719,-96,-5,-105
1747908206876.5,220055,1747908206857.563,-103,-24,-98
1747908206896.375,220217,1747908206877.437,-114,-29,-100
1747908206916.219,220383,1747908206897.281,-136,-29,-113
1747908206936.094,220563,1747908206917.094,-161,-36,-112
1747908206955.938,220651,1747908206937.031,-167,-36,-121
1747908206975.781,220708,1747908206956.844,-169,-31,-119
1747908206995.656,220708,1747908206976.687,-168,-25,-125
1747908207015.594,220678,1747908206996.594,-172,-5,-118
1747908207035.406,220612,1747908207016.5,-177,8,-121
1747908207055.281,220549,1747908207036.313,-161,9,-113
1747908207075.187,220389,1747908207056.187,-160,3,-104
1747908207094.969,220267,1747908207076.031,-158,3,-108
1747908207114.813,220106,1747908207095.906,-143,-8,-121
1747908207134.656,219869,1747908207115.719,-127,-16,-112
1747908207154.531,219616,1747908207135.562,-98,-24,-96
1747908207174.406,219327,1747908207155.437,-84,-26,-97
1747908207194.187,218907,1747908207175.313,-77,-20,-126
1747908207214.063,218462,1747908207195.125,-45,-16,-153
1747908207233.938,218108,1747908207214.969,-20,-15,-138
1747908207253.781,218168,1747908207234.844,8,-1,-128
1747908207273.594,218979,1747908207254.687,19,-4,-145
1747908207293.5,220245,1747908207274.531,23,-8,-160
1747908207313.313,221175,1747908207294.406,27,-15,-165
1747908207333.188,221929,1747908207314.219,35,-20,-160
1747908207353.0,222683,1747908207334.094,39,-4,-205
1747908207372.875,223369,1747908207353.969,48,-4,-218
1747908207392.719,223974,1747908207373.781,44,-12,-209
1747908207412.656,224376,1747908207393.656,54,-9,-192
1747908207432.406,224452,1747908207413.531,32,-33,-191
1747908207452.281,224164,1747908207433.375,25,-18,-190
1747908207472.125,223620,1747908207453.188,8,-26,-192
1747908207492.0,222908,1747908207473.063,-4,-34,-213
1747908207511.844,222252,1747908207492.937,3,-32,-178
1747908207531.687,221907,1747908207512.781,2,-34,-160
1747908207551.562,221794,1747908207532.594,-20,-28,-153
1747908207571.438,221835,1747908207552.469,-23,-15,-146
1747908207591.25,221999,1747908207572.344,-31,-18,-128
1747908207611.125,222297,1747908207592.187,-50,-16,-126
1747908207631.0,222529,1747908207612.031,-71,-10,-124
1747908207650.844,222750,1747908207631.906,-90,7,-128
1747908207670.688,222872,1747908207651.75,-87,24,-113
1747908207690.531,222892,1747908207671.625,-106,7,-94
1747908207710.406,222861,1747908207691.469,-101,4,-89
1747908207730.25,222807,1747908207711.313,-119,7,-88
1747908207750.094,222754,1747908207731.188,-148,-16,-108
1747908207769.938,222757,1747908207751.031,-165,-22,-114
1747908207789.781,222790,1747908207770.875,-176,-36,-121
1747908207809.656,222819,1747908207790.719,-194,-34,-128
1747908207829.5,222819,1747908207810.563,-194,-25,-129
1747908207849.344,222836,1747908207830.438,-183,-8,-114
1747908207869.219,222852,1747908207850.25,-173,4,-104
1747908207889.062,222894,1747908207870.125,-164,4,-100
1747908207908.906,222948,1747908207889.969,-159,1,-116
1747908207928.75,222988,1747908207909.813,-136,-2,-117
1747908207948.594,222958,1747908207929.75,-114,-7,-105
1747908207968.437,222840,1747908207949.5,-101,-16,-113
1747908207988.281,222626,1747908207969.375,-84,-20,-114
1747908208008.125,222232,1747908207989.219,-57,-1,-124
1747908208028.0,221823,1747908208009.063,-44,-17,-128
1747908208047.844,221449,1747908208028.875,-1,-16,-141
1747908208067.687,221126,1747908208048.781,4,-13,-136
1747908208087.562,220892,1747908208068.625,5,-10,-153
1747908208107.406,220794,1747908208088.5,1,-1,-160
1747908208127.281,220780,1747908208108.313,30,-8,-160
1747908208147.094,220781,1747908208128.187,51,-14,-170
1747908208166.937,220802,1747908208148.031,63,3,-200
1747908208186.812,220803,1747908208167.875,68,15,-205
1747908208206.625,220771,1747908208187.719,76,7,-210
1747908208226.5,220773,1747908208207.562,68,-2,-192
1747908208246.344,220877,1747908208227.437,66,-2,-180
1747908208266.187,221105,1747908208247.281,56,-1,-185
1747908208286.063,221419,1747908208267.156,44,-15,-180
1747908208305.938,221754,1747908208286.969,38,-16,-181
1747908208325.75,222098,1747908208306.844,9,-16,-168
1747908208345.594,222362,1747908208326.687,15,-16,-157
1747908208365.531,222615,1747908208346.531,-5,1,-159
1747908208385.344,222942,1747908208366.438,-16,12,-173
1747908208405.188,223375,1747908208386.219,-26,30,-168
1747908208425.031,223771,1747908208406.125,-45,31,-153
1747908208444.906,224131,1747908208425.937,-53,25,-128
1747908208464.75,224491,1747908208445.781,-64,-16,-119
1747908208484.688,224772,1747908208465.688,-82,-32,-107
1747908208504.437,225123,1747908208485.531,-103,-45,-92
1747908208524.281,225385,1747908208505.344,-129,-39,-105
1747908208544.125,225642,1747908208525.219,-141,-40,-121
1747908208563.969,225858,1747908208545.063,-145,-34,-128
1747908208583.844,226051,1747908208564.9058,-149,-36,-128
1747908208603.687,226172,1747908208584.875,-162,-32,-136
1747908208623.562,226213,1747908208604.594,-181,-29,-128
1747908208643.375,226252,1747908208624.469,-177,-17,-128
1747908208663.219,226242,1747908208644.406,-170,-16,-122
1747908208683.094,226226,1747908208664.125,-163,-10,-114
1747908208702.969,226224,1747908208684.0,-157,-10,-116
1747908208722.75,226243,1747908208703.875,-136,-8,-137
1747908208742.656,226284,1747908208723.719,-129,-17,-129
1747908208762.5,226340,1747908208743.562,-93,-18,-113
1747908208782.344,226357,1747908208763.406,-73,-13,-121
1747908208802.187,226281,1747908208783.25,-58,-16,-128
1747908208822.063,226072,1747908208803.125,-33,-18,-128
1747908208841.875,225725,1747908208822.906,-11,-25,-129
1747908208861.75,225307,1747908208842.75,5,-12,-128
1747908208881.562,224912,1747908208862.656,28,2,-141
1747908208901.406,224673,1747908208882.531,31,-1,-163
1747908208921.281,224566,1747908208902.344,55,1,-162
1747908208941.125,224502,1747908208922.219,60,-1,-164
1747908208960.969,224447,1747908208942.062,51,3,-169
1747908208980.844,224439,1747908208961.875,54,-1,-192
1747908209000.688,224412,1747908208981.75,48,3,-208
1747908209020.531,224368,1747908209001.594,51,11,-209
1747908209040.375,224351,1747908209021.4692,51,8,-201
1747908209060.219,224385,1747908209041.344,40,2,-189
1747908209080.094,224537,1747908209061.188,51,-1,-176
1747908209099.938,224716,1747908209081.0,36,-5,-167
1747908209119.781,224976,1747908209100.875,31,-1,-164
1747908209139.625,225213,1747908209120.719,39,-10,-158
1747908209159.562,225436,1747908209140.594,15,-14,-153
1747908209179.375,225723,1747908209160.438,-6,-9,-140
1747908209199.219,226010,1747908209180.344,-16,4,-146
1747908209219.063,226288,1747908209200.125,-33,0,-154
1747908209238.937,226537,1747908209220.0,-56,7,-153
1747908209258.938,226809,1747908209239.844,-72,3,-141
1747908209278.656,227016,1747908209259.719,-77,-20,-121
1747908209298.5,227223,1747908209279.594,-89,-29,-95
1747908209318.3442,227431,1747908209299.469,-94,-40,-98
1747908209338.219,227634,1747908209319.281,-132,-48,-100
1747908209358.063,227775,1747908209339.125,-154,-49,-108
1747908209377.906,227922,1747908209358.969,-181,-49,-125
1747908209397.812,227987,1747908209378.844,-189,-44,-141
1747908209417.625,228000,1747908209398.6868,-180,-42,-135
1747908209437.5,227984,1747908209418.563,-180,-21,-121
1747908209457.344,227894,1747908209438.406,-152,3,-121
1747908209477.188,227841,1747908209458.281,-160,7,-114
1747908209497.031,227821,1747908209478.062,-153,1,-125
1747908209516.906,227821,1747908209497.937,-145,-1,-133
1747908209536.719,227818,1747908209517.813,-129,-12,-127
1747908209556.594,227854,1747908209537.656,-125,-21,-113
1747908209576.437,227847,1747908209557.5,-109,-25,-113
1747908209596.312,227780,1747908209577.375,-84,-22,-128
1747908209616.125,227682,1747908209597.219,-52,-17,-125
1747908209636.031,227424,1747908209617.063,-41,-16,-127
1747908209655.875,227002,1747908209636.906,-20,-10,-145
1747908209675.75,226582,1747908209656.781,-1,-5,-155
1747908209695.594,226312,1747908209676.656,6,1,-145
1747908209715.438,226137,1747908209696.5,40,-4,-157
1747908209735.313,226061,1747908209716.3442,54,-1,-167
1747908209755.187,226057,1747908209736.219,48,1,-177
1747908209775.0,226022,1747908209756.094,57,8,-177
1747908209794.875,225984,1747908209775.938,65,0,-170
1747908209814.75,225947,1747908209795.781,63,6,-177
1747908209834.687,225916,1747908209815.625,48,11,-181
1747908209854.437,225938,1747908209835.5,54,3,-193
1747908209874.281,225944,1747908209855.344,51,3,-192
1747908209894.094,225985,1747908209875.1882,40,-1,-200
1747908209913.969,226072,1747908209895.031,19,-2,-188
1747908209933.844,226256,1747908209914.906,25,-8,-181
1747908209953.656,226513,1747908209934.781,19,-17,-173
1747908209973.531,226796,1747908209954.594,12,-17,-168
1747908209993.438,227063,1747908209974.469,3,-20,-160
1747908210013.2192,227346,1747908209994.344,-4,-19,-180
1747908210033.125,227561,1747908210014.187,-32,-12,-165
1747908210053.031,227810,1747908210034.031,-37,-25,-128
1747908210072.844,228007,1747908210053.938,-57,-26,-105
1747908210092.688,228206,1747908210073.781,-97,-15,-118
1747908210112.562,228473,1747908210093.625,-128,-8,-138
1747908210132.406,228673,1747908210113.469,-135,-16,-128
1747908210152.313,228765,1747908210133.344,-135,-25,-92
1747908210172.156,228772,1747908210153.219,-138,-25,-63
1747908210192.031,228757,1747908210173.094,-157,-29,-64
1747908210211.906,228717,1747908210192.906,-176,-16,-81
1747908210231.75,228675,1747908210212.813,-189,6,-93
1747908210251.594,228609,1747908210232.687,-188,23,-119
1747908210271.5,228500,1747908210252.531,-184,42,-128
1747908210291.344,228383,1747908210272.406,-168,30,-126
1747908210311.188,228311,1747908210292.25,-152,15,-113
1747908210331.094,228243,1747908210312.125,-138,-8,-102
1747908210351.0,228228,1747908210332.031,-140,-13,-105
1747908210370.812,228205,1747908210351.875,-141,-17,-112
1747908210390.688,228070,1747908210371.719,-122,-18,-138
1747908210410.531,227826,1747908210391.625,-113,-26,-128
1747908210430.437,227428,1747908210411.437,-103,-34,-106
1747908210450.281,226921,1747908210431.344,-64,-29,-126
1747908210470.125,226363,1747908210451.188,-32,-20,-153
1747908210490.031,226043,1747908210471.063,-12,-15,-145
1747908210509.875,225920,1747908210490.906,19,-16,-125
1747908210529.75,225853,1747908210510.812,39,-2,-148
1747908210549.594,225821,1747908210530.656,55,8,-161
1747908210569.563,225795,1747908210550.531,63,-4,-177
1747908210589.344,225829,1747908210570.406,70,1,-178
1747908210609.219,225856,1747908210590.219,67,21,-202
1747908210629.062,225858,1747908210610.125,72,12,-210
1747908210648.938,225839,1747908210630.0,54,3,-207
1747908210668.781,225790,1747908210649.844,51,-1,-192
1747908210688.656,225765,1747908210669.719,40,-7,-192
1747908210708.531,225907,1747908210689.594,43,-12,-190
1747908210728.375,226130,1747908210709.469,35,-16,-185
1747908210748.281,226447,1747908210729.281,31,-10,-169
1747908210768.156,226946,1747908210749.281,19,-15,-154
1747908210788.0,227545,1747908210769.063,6,-10,-128
1747908210807.875,228156,1747908210788.938,-1,-9,-138
1747908210827.719,228626,1747908210808.781,-18,-1,-138
1747908210847.594,228974,1747908210828.656,-42,14,-138
1747908210867.5,229139,1747908210848.531,-85,15,-128
1747908210887.313,229227,1747908210868.406,-92,15,-133
1747908210907.188,229349,1747908210888.2192,-93,3,-122
1747908210927.031,229462,1747908210908.094,-97,-13,-123
1747908210946.969,229592,1747908210927.969,-125,-34,-109
1747908210966.75,229698,1747908210947.906,-152,-35,-105
1747908210986.625,229681,1747908210967.656,-173,-33,-100
1747908211006.5,229636,1747908210987.531,-175,-41,-105
1747908211026.312,229547,1747908211007.406,-168,-39,-105
1747908211046.187,229449,1747908211027.25,-189,-18,-97
1747908211066.063,229383,1747908211047.094,-186,-4,-96
1747908211085.906,229338,1747908211066.969,-180,7,-94
1747908211105.781,229307,1747908211086.812,-180,11,-96
1747908211125.656,229224,1747908211106.75,-176,4,-113
1747908211145.531,229184,1747908211126.563,-165,-3,-116
1747908211165.375,229138,1747908211146.4692,-144,-12,-113
1747908211185.312,229131,1747908211166.312,-116,-16,-103
1747908211205.094,228990,1747908211186.219,-104,-18,-121
1747908211224.969,228737,1747908211206.0,-84,-16,-141
1747908211244.813,228445,1747908211225.875,-63,-18,-128
1747908211264.687,228102,1747908211245.781,-34,-20,-128
1747908211284.562,227846,1747908211265.625,-13,-13,-129
1747908211304.469,227669,1747908211285.469,-1,-4,-128
1747908211324.25,227570,1747908211305.344,3,-8,-157
1747908211344.125,227534,1747908211325.219,24,-4,-149
1747908211364.0,227537,1747908211345.031,48,-7,-159
1747908211383.844,227540,1747908211364.875,51,-16,-177
1747908211403.688,227535,1747908211384.75,55,-2,-176
1747908211423.563,227567,1747908211404.656,48,0,-189
1747908211443.437,227552,1747908211424.5,50,-1,-208
1747908211463.281,227521,1747908211444.313,50,-2,-205
1747908211483.125,227447,1747908211464.188,44,-1,-209
1747908211503.0,227349,1747908211484.094,28,-4,-192
1747908211522.844,227385,1747908211503.937,17,-9,-192
1747908211542.719,227521,1747908211523.75,22,-9,-188
1747908211562.6882,227744,1747908211543.625,12,-10,-177
1747908211582.438,228060,1747908211563.625,3,-15,-162
1747908211602.25,228438,1747908211583.375,4,-13,-146
1747908211622.125,228792,1747908211603.187,-10,-10,-136
1747908211641.906,229097,1747908211623.031,-28,-5,-128
1747908211661.781,229409,1747908211642.875,-35,-1,-128
1747908211681.6558,229714,1747908211662.75,-65,0,-128
1747908211701.5,230053,1747908211682.562,-73,-13,-128
1747908211721.344,230383,1747908211702.406,-89,-17,-135
1747908211741.188,230672,1747908211722.25,-104,-5,-113
1747908211761.031,230922,1747908211742.094,-113,-8,-105
1747908211780.937,231134,1747908211761.937,-135,-17,-119
1747908211800.781,231269,1747908211781.844,-159,-29,-122
1747908211820.594,231361,1747908211801.688,-160,-22,-121
1747908211840.469,231422,1747908211821.594,-159,-16,-121
1747908211860.344,231480,1747908211841.3442,-170,-13,-113
1747908211880.156,231485,1747908211861.25,-166,-2,-113
1747908211900.0,231435,1747908211881.094,-161,12,-104
1747908211919.938,231325,1747908211900.969,-168,20,-104
1747908211939.719,231193,1747908211920.844,-164,16,-108
1747908211959.594,231078,1747908211940.625,-151,14,-104
1747908211979.437,231015,1747908211960.5,-130,7,-114
1747908211999.281,230954,1747908211980.375,-114,20,-128
1747908212019.156,230918,1747908212000.1882,-109,-8,-145
1747908212039.031,230887,1747908212020.062,-99,-13,-122
1747908212058.812,230867,1747908212039.906,-80,-17,-104
1747908212078.687,230796,1747908212059.844,-81,-13,-114
1747908212098.531,230649,1747908212079.594,-59,-15,-128
1747908212118.406,230412,1747908212099.469,-54,-13,-128
1747908212138.25,230163,1747908212119.312,-42,-13,-109
1747908212158.156,229974,1747908212139.219,-15,-13,-116
1747908212177.969,229833,1747908212159.0,3,-8,-144
1747908212197.813,229705,1747908212178.875,-1,-17,-166
1747908212217.625,229652,1747908212198.719,16,-23,-180
1747908212237.5,229621,1747908212218.5618,31,-20,-185
1747908212257.437,229643,1747908212238.437,28,-18,-192
1747908212277.219,229705,1747908212258.344,30,-11,-210
1747908212297.125,229717,1747908212278.156,41,-13,-208
1747908212316.906,229748,1747908212298.062,45,-13,-192
1747908212336.75,229703,1747908212317.812,31,-16,-191
1747908212356.625,229639,1747908212337.688,39,-12,-181
1747908212376.469,229549,1747908212357.531,19,-15,-180
1747908212396.313,229503,1747908212377.4058,12,-17,-160
1747908212416.187,229501,1747908212397.25,11,-21,-168
1747908212436.031,229626,1747908212417.094,-2,-21,-159
1747908212455.875,229819,1747908212436.938,-8,-19,-153
1747908212475.75,230087,1747908212456.813,-15,-18,-128
1747908212495.594,230327,1747908212476.687,-21,-16,-128
1747908212515.469,230457,1747908212496.5,-40,-13,-125
1747908212535.312,230476,1747908212516.406,-69,-16,-145
1747908212555.156,230483,1747908212536.25,-93,-13,-128
1747908212575.031,230486,1747908212556.094,-88,-14,-109
1747908212594.937,230528,1747908212575.937,-104,-7,-92
1747908212614.719,230572,1747908212595.813,-109,3,-96
1747908212634.594,230600,1747908212615.656,-143,4,-93
1747908212654.438,230656,1747908212635.5,-153,3,-89
1747908212674.312,230664,1747908212655.375,-176,4,-82
1747908212694.156,230662,1747908212675.219,-191,-1,-94
1747908212714.0,230636,1747908212695.094,-189,4,-89
1747908212733.844,230583,1747908212714.906,-201,16,-82
1747908212753.781,230520,1747908212734.781,-178,8,-76
1747908212773.531,230493,1747908212754.625,-196,15,-88
1747908212793.406,230435,1747908212774.469,-185,8,-76
1747908212813.25,230428,1747908212794.313,-172,7,-72
1747908212833.094,230423,1747908212814.188,-170,4,-60
1747908212852.937,230388,1747908212834.0,-153,7,-77
1747908212872.812,230361,1747908212853.875,-144,-1,-81
1747908212892.625,230320,1747908212873.719,-129,-7,-77
1747908212912.5,230167,1747908212893.563,-137,-10,-90
1747908212932.344,229972,1747908212913.406,-114,-24,-89
1747908212952.187,229814,1747908212933.281,-104,-36,-96
1747908212972.062,229716,1747908212953.125,-57,-47,-121
1747908212991.906,229718,1747908212973.0,-32,-44,-121
1747908213011.75,229759,1747908212992.844,1,-39,-141
1747908213031.625,229792,1747908213012.687,6,-40,-157
1747908213051.469,229835,1747908213032.531,4,-50,-169
1747908213071.344,229879,1747908213052.375,3,-48,-189
1747908213091.156,229874,1747908213072.25,12,-55,-204
1747908213111.031,229904,1747908213092.125,8,-49,-218
1747908213130.875,229876,1747908213111.969,1,-47,-208
1747908213150.75,229802,1747908213131.813,-13,-36,-209
1747908213170.563,229755,1747908213151.656,-16,-29,-201
1747908213190.438,229665,1747908213171.594,-17,-29,-189
1747908213210.312,229606,1747908213191.375,-16,-25,-169
1747908213230.125,229541,1747908213211.219,-31,-23,-156
1747908213250.0,229472,1747908213231.063,-33,-18,-145
1747908213269.938,229375,1747908213250.906,-45,-9,-122
1747908213289.688,229212,1747908213270.875,-72,-14,-125
1747908213309.562,229111,1747908213290.625,-81,-10,-126
1747908213329.437,229078,1747908213310.469,-87,-12,-114
1747908213349.25,229048,1747908213330.344,-97,-16,-96
1747908213369.125,229070,1747908213350.188,-113,-16,-81
1747908213388.969,229207,1747908213370.031,-121,-19,-61
1747908213408.812,229319,1747908213389.875,-132,-25,-40
1747908213428.656,229348,1747908213409.688,-159,-26,-32
1747908213448.5,229328,1747908213429.594,-193,-8,-49
1747908213468.344,229313,1747908213449.406,-225,14,-32
1747908213488.219,229236,1747908213469.25,-225,27,-41
1747908213508.031,229171,1747908213489.125,-226,40,-50
1747908213527.906,229070,1747908213509.063,-208,39,-64
1747908213547.781,228926,1747908213528.8442,-210,44,-77
1747908213567.625,228794,1747908213548.656,-193,39,-85
1747908213587.469,228663,1747908213568.531,-168,24,-89
1747908213607.406,228555,1747908213588.375,-152,9,-105
1747908213627.156,228458,1747908213608.313,-136,-1,-105
1747908213647.031,228312,1747908213628.062,-122,-17,-93
1747908213666.875,228060,1747908213647.969,-96,-22,-106
1747908213686.719,227780,1747908213667.813,-65,-32,-137
1747908213706.594,227623,1747908213687.625,-43,-29,-141
1747908213726.531,227632,1747908213707.531,-26,-32,-139
1747908213746.25,227717,1747908213727.375,-28,-41,-132
1747908213766.125,227814,1747908213747.187,-12,-28,-137
1747908213785.937,227919,1747908213767.031,-18,-18,-141
1747908213805.844,228027,1747908213786.875,-16,-17,-144
1747908213825.656,228134,1747908213806.719,-9,-18,-162
1747908213845.5,228200,1747908213826.594,-4,-20,-168
1747908213865.344,228254,1747908213846.406,-16,-29,-169
1747908213885.219,228312,1747908213866.281,-18,-29,-177
1747908213905.031,228409,1747908213886.125,-8,-32,-201
1747908213924.906,228451,1747908213905.969,-1,-32,-224
1747908213944.75,228426,1747908213925.812,-12,-36,-216
1747908213964.625,228343,1747908213945.656,-10,-45,-192
1747908213984.469,228239,1747908213965.5,-8,-57,-185
1747908214004.313,228175,1747908213985.375,-17,-48,-177
1747908214024.156,228140,1747908214005.25,-25,-32,-173
1747908214044.031,228197,1747908214025.062,-40,-25,-145
1747908214063.938,228317,1747908214044.938,-48,-25,-125
1747908214083.719,228453,1747908214064.781,-58,-25,-121
1747908214103.594,228602,1747908214084.625,-95,-5,-125
1747908214123.469,228666,1747908214104.469,-104,4,-125
1747908214143.281,228687,1747908214124.375,-104,22,-121
1747908214163.156,228702,1747908214144.25,-104,24,-110
1747908214183.0,228728,1747908214164.062,-108,16,-97
1747908214202.875,228720,1747908214183.906,-116,12,-87
1747908214222.75,228725,1747908214203.813,-125,15,-82
1747908214242.594,228752,1747908214223.688,-136,15,-61
1747908214262.469,228713,1747908214243.5,-141,14,-53
1747908214282.312,228636,1747908214263.375,-160,15,-49
1747908214302.125,228527,1747908214283.25,-175,16,-49
1747908214322.031,228401,1747908214303.063,-177,27,-50
1747908214341.906,228269,1747908214322.938,-177,19,-64
1747908214361.75,228128,1747908214342.844,-161,18,-75
1747908214381.594,227985,1747908214362.656,-183,19,-68
1747908214401.469,227872,1747908214382.531,-177,19,-81
1747908214421.313,227736,1747908214402.406,-169,47,-87
1747908214441.188,227626,1747908214422.219,-143,19,-100
1747908214461.062,227521,1747908214442.125,-141,16,-104
1747908214480.906,227407,1747908214461.969,-117,1,-80
1747908214500.75,227240,1747908214481.875,-100,-5,-102
1747908214520.625,227043,1747908214501.656,-84,-4,-122
1747908214540.469,226974,1747908214521.531,-74,-15,-128
1747908214560.344,226935,1747908214541.406,-60,-15,-128
1747908214580.25,226955,1747908214561.219,-48,-13,-147
1747908214600.094,227048,1747908214581.187,-46,-8,-145
1747908214619.906,227150,1747908214600.969,-31,-16,-153
1747908214639.781,227214,1747908214620.875,-36,-23,-170
1747908214659.656,227146,1747908214640.688,-16,-20,-188
1747908214679.5,226986,1747908214660.563,9,-36,-185
1747908214699.344,226825,1747908214680.406,39,-47,-189
1747908214719.187,226883,1747908214700.281,52,-36,-192
1747908214739.062,226891,1747908214720.094,36,-10,-192
1747908214758.938,226940,1747908214740.0,32,3,-186
1747908214778.75,226996,1747908214759.844,7,1,-180
1747908214798.625,227080,1747908214779.719,-16,-8,-180
1747908214818.5,227204,1747908214799.562,-45,-4,-169
1747908214838.375,227377,1747908214819.406,-56,-8,-154
1747908214858.219,227589,1747908214839.313,-64,-7,-126
1747908214878.062,227796,1747908214859.156,-57,-3,-104
1747908214897.969,228138,1747908214878.969,-52,-4,-109
1747908214917.844,228657,1747908214898.844,-52,-8,-128
1747908214937.6882,229154,1747908214918.719,-77,-16,-144
1747908214957.562,229422,1747908214938.625,-107,-13,-121
1747908214977.406,229574,1747908214958.469,-120,-16,-93
1747908214997.313,229673,1747908214978.313,-121,-20,-89
1747908215017.125,229715,1747908214998.219,-130,-29,-101
1747908215037.0,229660,1747908215018.094,-143,-34,-103
1747908215056.875,229589,1747908215037.906,-156,-23,-96
1747908215076.719,229474,1747908215057.781,-164,-23,-90
1747908215096.563,229406,1747908215077.656,-157,-20,-81
1747908215116.438,229348,1747908215097.5,-188,-8,-80
1747908215136.281,229220,1747908215117.344,-200,3,-84
1747908215156.156,229061,1747908215137.219,-219,15,-92
1747908215176.031,228852,1747908215157.063,-204,24,-95
1747908215195.938,228597,1747908215176.969,-178,26,-87
1747908215215.75,228363,1747908215196.781,-140,14,-96
1747908215235.625,228138,1747908215216.656,-119,15,-106
1747908215255.469,227863,1747908215236.531,-114,3,-113
1747908215275.344,227614,1747908215256.406,-116,3,-101
1747908215295.219,227376,1747908215276.25,-108,-9,-97
1747908215315.094,227172,1747908215296.125,-88,-9,-118
1747908215334.906,227000,1747908215316.063,-82,-1,-128
1747908215354.781,226839,1747908215335.844,-66,-14,-128
1747908215374.625,226623,1747908215355.687,-68,-21,-117
1747908215394.5,226443,1747908215375.562,-60,-20,-113
1747908215414.344,226257,1747908215395.438,-48,-24,-128
1747908215434.219,226070,1747908215415.25,-32,-25,-141
1747908215454.063,225858,1747908215435.125,-28,-32,-153
1747908215473.937,225666,1747908215455.0,-29,-33,-156
1747908215493.75,225516,1747908215474.844,-16,-32,-177
1747908215513.625,225437,1747908215494.719,-8,-29,-188
1747908215533.469,225347,1747908215514.531,3,-26,-192
1747908215553.344,225291,1747908215534.375,11,-10,-201
1747908215573.187,225236,1747908215554.25,7,-15,-192
1747908215593.062,225219,1747908215574.125,9,-10,-200
1747908215612.906,225271,1747908215593.9382,12,-12,-184
1747908215632.812,225338,1747908215613.844,2,-10,-170
1747908215652.625,225359,1747908215633.719,-10,-10,-160
1747908215672.5,225373,1747908215653.656,-23,-13,-158
1747908215692.375,225394,1747908215673.406,-29,-20,-148
1747908215712.219,225439,1747908215693.219,-34,-24,-137
1747908215732.062,225464,1747908215713.156,-40,-18,-126
1747908215751.937,225469,1747908215733.031,-52,-18,-113
1747908215771.813,225435,1747908215752.844,-82,-9,-104
1747908215791.656,225242,1747908215772.719,-103,-10,-113
1747908215811.531,225078,1747908215792.594,-107,-8,-117
1747908215831.375,224929,1747908215812.469,-129,-8,-116
1747908215851.25,224795,1747908215832.281,-119,-7,-113
1747908215871.094,224702,1747908215852.156,-132,-2,-109
1747908215890.938,224612,1747908215872.062,-144,7,-97
1747908215910.844,224530,1747908215891.906,-146,-8,-89
1747908215930.687,224388,1747908215911.75,-148,-13,-81
1747908215950.531,224256,1747908215931.594,-157,-8,-79
1747908215970.438,224093,1747908215951.469,-170,-7,-64
1747908215990.281,223916,1747908215971.344,-189,3,-77
1747908216010.156,223750,1747908215991.188,-192,9,-64
1747908216030.0,223610,1747908216011.063,-189,12,-64
1747908216049.875,223472,1747908216030.937,-176,17,-77
1747908216069.719,223279,1747908216050.812,-162,15,-90
1747908216089.656,223096,1747908216070.656,-164,15,-97
1747908216109.469,222919,1747908216090.5,-144,7,-88
1747908216129.344,222698,1747908216110.375,-125,12,-89
1747908216149.344,222509,1747908216130.25,-128,12,-101
1747908216169.125,222304,1747908216150.125,-109,7,-113
1747908216188.938,222109,1747908216170.0,-108,-7,-112
1747908216208.781,221892,1747908216189.875,-88,-2,-113
1747908216228.656,221612,1747908216209.687,-64,-10,-114
1747908216248.562,221338,1747908216229.594,-64,-23,-116
1747908216268.375,221057,1747908216249.469,-48,-24,-121
1747908216288.281,220823,1747908216269.344,-33,-24,-141
1747908216308.125,220653,1747908216289.187,-18,-24,-141
1747908216328.0,220547,1747908216309.062,-9,-29,-146
1747908216347.844,220441,1747908216328.906,-8,-21,-160
1747908216367.719,220316,1747908216348.813,1,-21,-183
1747908216387.594,220179,1747908216368.656,-4,-23,-192
1747908216407.469,220038,1747908216388.531,-18,-20,-192
1747908216427.281,219900,1747908216408.344,-16,-18,-205
1747908216447.156,219781,1747908216428.25,-20,-20,-198
1747908216467.031,219689,1747908216448.062,-4,-17,-192
1747908216486.906,219634,1747908216467.906,-20,-13,-189
1747908216506.75,219597,1747908216487.781,-32,-18,-177
1747908216526.594,219582,1747908216507.688,-36,-15,-160
1747908216546.5,219626,1747908216527.5,-39,-24,-154
1747908216566.344,219694,1747908216547.375,-48,-21,-145
1747908216586.1868,219694,1747908216567.25,-40,-18,-136
1747908216606.063,219667,1747908216587.125,-58,-20,-127
1747908216625.906,219668,1747908216607.0,-71,-1,-111
1747908216645.781,219691,1747908216626.812,-68,-10,-95
1747908216665.719,219775,1747908216646.719,-88,-7,-82
1747908216685.469,219844,1747908216666.594,-105,0,-64
1747908216705.375,219819,1747908216686.406,-122,7,-95
1747908216725.219,219785,1747908216706.281,-146,3,-89
1747908216745.062,219793,1747908216726.125,-161,-9,-83
1747908216764.937,219785,1747908216746.0,-180,-17,-74
1747908216784.844,219776,1747908216765.844,-178,-18,-78
1747908216804.656,219804,1747908216785.75,-184,-16,-76
1747908216824.5,219807,1747908216805.594,-181,-12,-61
1747908216844.344,219838,1747908216825.438,-175,3,-50
1747908216864.25,219844,1747908216845.281,-176,8,-50
1747908216884.094,219847,1747908216865.156,-176,16,-64
1747908216903.969,219826,1747908216885.062,-176,12,-72
1747908216923.844,219776,1747908216904.875,-165,8,-63
1747908216943.688,219697,1747908216924.75,-160,6,-64
1747908216963.531,219590,1747908216944.563,-145,1,-95
1747908216983.406,219432,1747908216964.469,-154,-1,-97
1747908217003.281,219228,1747908216984.375,-122,-7,-86
1747908217023.1882,218937,1747908217004.188,-116,-8,-97
1747908217043.0,218457,1747908217024.094,-100,-8,-124
1747908217062.875,218009,1747908217043.969,-100,-2,-121
1747908217082.75,217778,1747908217063.781,-72,-4,-97
1747908217102.625,217686,1747908217083.625,-29,-10,-89
1747908217122.469,217667,1747908217103.5308,-26,-23,-104
1747908217142.344,217712,1747908217123.437,-25,-28,-137
1747908217162.219,217797,1747908217143.219,-20,-18,-153
1747908217182.094,217903,1747908217163.125,-8,-17,-165
1747908217201.938,217969,1747908217183.031,9,-20,-173
1747908217221.844,218008,1747908217202.875,3,-23,-191
1747908217241.687,218076,1747908217222.719,0,-17,-201
1747908217261.563,218084,1747908217242.594,-17,-16,-192
1747908217281.4382,218078,1747908217262.438,-10,-13,-192
1747908217301.25,218102,1747908217282.5,-8,-10,-192
1747908217321.156,218200,1747908217302.125,-15,-18,-184
1747908217341.0,218307,1747908217322.031,-18,-18,-173
1747908217360.844,218449,1747908217341.906,-25,-13,-153
1747908217380.719,218643,1747908217361.7808,-29,-18,-141
1747908217400.594,218863,1747908217381.594,-25,-25,-133
1747908217420.437,219047,1747908217401.5,-44,-9,-106
1747908217440.313,219192,1747908217421.375,-40,3,-112
1747908217460.156,219226,1747908217441.25,-49,2,-116
1747908217480.031,219224,1747908217461.031,-71,0,-109
1747908217499.906,219284,1747908217480.937,-113,-7,-82
1747908217519.719,219378,1747908217500.813,-130,-36,-89
1747908217539.594,219413,1747908217520.656,-135,-29,-96
1747908217559.5,219356,1747908217540.5,-149,-20,-113
1747908217579.344,219247,1747908217560.406,-175,-23,-106
1747908217599.188,219209,1747908217580.25,-177,-33,-94
1747908217619.188,219218,1747908217600.156,-164,-34,-80
1747908217638.906,219195,1747908217620.094,-165,-29,-64
1747908217658.812,219198,1747908217639.844,-165,-17,-57
1747908217678.625,219188,1747908217659.719,-170,-7,-53
1747908217698.5,219176,1747908217679.594,-177,2,-58
1747908217718.375,219098,1747908217699.406,-175,1,-64
1747908217738.25,219054,1747908217719.312,-175,4,-82
1747908217758.0618,219021,1747908217739.125,-170,-9,-89
1747908217777.938,219065,1747908217759.031,-168,-8,-113
1747908217797.813,219111,1747908217778.875,-157,-16,-108
1747908217817.656,219111,1747908217798.719,-152,-16,-101
1747908217837.5,219108,1747908217818.594,-133,-15,-97
1747908217857.344,219124,1747908217838.438,-98,-8,-113
1747908217877.219,219202,1747908217858.25,-76,-9,-96
1747908217897.094,219341,1747908217878.156,-61,-23,-74
1747908217916.906,219537,1747908217898.0,-36,-20,-89
1747908217936.812,219750,1747908217917.875,-10,3,-116
1747908217956.656,220032,1747908217937.719,-20,12,-128
1747908217976.5,220384,1747908217957.562,3,8,-152
1747908217996.344,220700,1747908217977.406,7,17,-160
1747908218016.187,221037,1747908217997.281,14,3,-177
1747908218036.063,221333,1747908218017.094,23,12,-180
1747908218055.906,221611,1747908218036.938,0,-1,-184
1747908218075.75,221895,1747908218056.812,-12,-8,-192
1747908218095.625,222121,1747908218076.719,-39,-1,-192
1747908218115.5,222264,1747908218096.531,-44,-20,-189
1747908218135.344,222330,1747908218116.406,-45,-29,-172
1747908218155.188,222380,1747908218136.281,-41,-41,-168
1747908218175.062,222425,1747908218156.125,-37,-29,-153
1747908218194.906,222475,1747908218175.969,-44,-24,-153
1747908218214.781,222517,1747908218195.813,-63,-15,-128
1747908218234.625,222565,1747908218215.656,-57,-15,-112
1747908218254.469,222665,1747908218235.562,-72,-16,-114
1747908218274.344,222797,1747908218255.375,-93,-16,-109
1747908218294.219,222929,1747908218275.25,-120,-16,-104
1747908218314.031,222867,1747908218295.125,-131,-8,-90
1747908218333.906,222613,1747908218314.937,-121,-8,-73
1747908218353.812,222546,1747908218334.812,-113,-4,-51
1747908218373.625,222515,1747908218354.719,-128,7,-61
1747908218393.469,222403,1747908218374.5,-177,16,-80
1747908218413.344,222310,1747908218394.437,-194,-1,-82
1747908218433.219,222294,1747908218414.25,-167,2,-64
1747908218453.094,222360,1747908218434.125,-192,-16,-40
1747908218472.906,222440,1747908218454.031,-180,-10,-36
1747908218492.781,222486,1747908218473.844,-180,1,-32
1747908218512.687,222526,1747908218493.687,-186,10,-57
1747908218532.531,222550,1747908218513.562,-186,14,-64
1747908218552.375,222570,1747908218533.438,-191,17,-67
1747908218572.25,222636,1747908218553.313,-185,15,-76
1747908218592.094,222702,1747908218573.156,-177,12,-89
1747908218611.969,222817,1747908218592.969,-164,7,-96
1747908218631.813,222929,1747908218612.906,-160,2,-97
1747908218651.656,223066,1747908218632.719,-124,-3,-96
1747908218671.531,223141,1747908218652.594,-105,-8,-114
1747908218691.406,223203,1747908218672.469,-81,-12,-113
1747908218711.25,223278,1747908218692.313,-72,-8,-103
1747908218731.125,223536,1747908218712.156,-40,-8,-113
1747908218751.0,223840,1747908218732.031,-8,-8,-122
1747908218770.812,224189,1747908218751.906,-17,-8,-138
1747908218790.687,224555,1747908218771.75,-10,-4,-148
1747908218810.625,224872,1747908218791.625,-15,-13,-151
1747908218830.406,225101,1747908218811.469,-16,-17,-152
1747908218850.25,225216,1747908218831.312,-2,-12,-177
1747908218870.094,225334,1747908218851.187,3,-8,-177
1747908218889.969,225417,1747908218871.063,-12,-4,-184
1747908218909.875,225469,1747908218890.906,-20,-1,-177
1747908218929.688,225491,1747908218910.812,-34,-8,-183
1747908218949.562,225494,1747908218930.656,-47,-13,-178
1747908218969.438,225454,1747908218950.5,-52,-17,-170
1747908218989.313,225404,1747908218970.375,-50,-16,-177
1747908219009.156,225327,1747908218990.281,-64,-16,-153
1747908219029.031,225287,1747908219010.094,-63,-16,-128
1747908219048.875,225292,1747908219029.938,-61,-9,-113
1747908219068.781,225353,1747908219049.781,-71,-8,-105
1747908219088.687,225405,1747908219069.687,-87,3,-104
1747908219108.469,225450,1747908219089.625,-100,-2,-96
1747908219128.375,225480,1747908219109.375,-104,4,-88
1747908219148.219,225519,1747908219129.281,-121,0,-97
1747908219168.063,225517,1747908219149.125,-145,-8,-89
1747908219188.0,225543,1747908219169.0,-148,-8,-81
1747908219207.812,225593,1747908219188.906,-160,-8,-81
1747908219227.688,225609,1747908219208.719,-164,-1,-81
1747908219247.531,225607,1747908219228.563,-165,-17,-64
1747908219267.375,225604,1747908219248.469,-164,-20,-64
1747908219287.25,225505,1747908219268.281,-175,-13,-65
1747908219307.125,225390,1747908219288.188,-170,-10,-81
1747908219326.938,225268,1747908219308.031,-166,-4,-74
1747908219346.812,225154,1747908219327.875,-158,7,-78
1747908219366.687,225067,1747908219347.719,-153,12,-82
1747908219386.531,224989,1747908219367.594,-148,17,-64
1747908219406.375,224899,1747908219387.469,-148,12,-75
1747908219426.219,224856,1747908219407.312,-141,4,-89
1747908219446.094,224834,1747908219427.125,-140,7,-89
1747908219465.969,224813,1747908219447.0,-143,-9,-105
1747908219485.781,224797,1747908219466.875,-119,-2,-121
1747908219505.625,224839,1747908219486.75,-113,-8,-125
1747908219525.5,225069,1747908219506.5,-84,-16,-125
1747908219545.5,225355,1747908219526.406,-71,-13,-121
1747908219565.219,225639,1747908219546.313,-49,-17,-137
1747908219585.094,225937,1747908219566.156,-39,-5,-146
1747908219604.938,226176,1747908219585.969,-20,-10,-155
1747908219624.8118,226436,1747908219605.844,-17,-10,-160
1747908219644.656,226705,1747908219625.719,-20,-13,-161
1747908219664.5,226927,1747908219645.594,-25,-21,-177
1747908219684.406,226968,1747908219665.406,-25,-17,-177
1747908219704.25,226941,1747908219685.312,-15,-18,-172
1747908219724.094,226861,1747908219705.188,-21,-16,-167
1747908219743.969,226734,1747908219725.031,-10,-10,-160
1747908219763.844,226625,1747908219744.906,-24,-4,-150
1747908219783.719,226531,1747908219764.75,-20,-9,-138
1747908219803.562,226453,1747908219784.625,-25,-6,-128
1747908219823.5,226436,1747908219804.531,-39,-12,-128
1747908219843.313,226419,1747908219824.406,-48,-7,-125
1747908219863.187,226371,1747908219844.25,-68,-7,-112
1747908219883.031,226231,1747908219864.094,-97,-13,-114
1747908219902.906,226155,1747908219884.0,-100,-8,-115
1747908219922.781,226222,1747908219903.813,-105,-34,-93
1747908219942.656,226406,1747908219923.656,-114,-24,-96
1747908219962.5,226612,1747908219943.562,-138,-20,-109
1747908219982.375,226708,1747908219963.438,-160,-14,-90
1747908220002.25,226776,1747908219983.281,-173,-10,-81
1747908220022.094,226887,1747908220003.156,-192,-17,-60
1747908220041.937,227059,1747908220023.031,-197,-25,-58
1747908220061.781,227215,1747908220042.844,-188,-25,-48
1747908220081.656,227353,1747908220062.6882,-189,-17,-32
1747908220101.562,227438,1747908220082.562,-185,-13,-26
1747908220121.375,227469,1747908220102.469,-180,3,-29
1747908220141.25,227511,1747908220122.344,-185,8,-33
1747908220161.25,227543,1747908220142.188,-180,14,-42
1747908220180.969,227593,1747908220162.125,-178,6,-67
1747908220200.844,227586,1747908220181.937,-177,6,-81
1747908220220.719,227547,1747908220201.75,-193,0,-95
1747908220240.594,227536,1747908220221.656,-193,-21,-100
1747908220260.438,227519,1747908220241.5,-186,-26,-101
1747908220280.344,227462,1747908220261.375,-168,-21,-119
1747908220300.187,227395,1747908220281.219,-140,-17,-116
1747908220320.031,227369,1747908220301.094,-83,12,-122
1747908220339.875,227457,1747908220320.969,-57,30,-125
1747908220359.75,227559,1747908220340.844,-23,16,-129
1747908220379.625,227582,1747908220360.656,28,28,-113
1747908220399.469,227588,1747908220380.531,43,19,-126
1747908220419.344,227554,1747908220400.4058,56,19,-128
1747908220439.219,227507,1747908220420.281,52,20,-128
1747908220459.062,227408,1747908220440.125,36,11,-149
1747908220478.969,227310,1747908220460.0,35,-7,-162
1747908220498.781,227232,1747908220479.875,12,-13,-170
1747908220518.656,227212,1747908220499.75,-1,-16,-177
1747908220538.5,227193,1747908220519.562,-12,-10,-160
1747908220558.406,227237,1747908220539.438,-15,-8,-156
1747908220578.188,227248,1747908220559.344,-40,-16,-153
1747908220598.094,227377,1747908220579.156,-45,-13,-152
1747908220617.937,227481,1747908220599.0,-65,-4,-146
1747908220637.812,227470,1747908220618.875,-69,6,-144
1747908220657.688,227448,1747908220638.719,-103,-12,-138
1747908220677.531,227412,1747908220658.594,-146,-13,-127
1747908220697.406,227401,1747908220678.437,-153,15,-121
1747908220717.281,227376,1747908220698.312,-157,0,-93
1747908220737.062,227345,1747908220718.188,-149,-12,-64
1747908220756.938,227377,1747908220738.031,-148,-23,-57
1747908220776.813,227432,1747908220757.875,-173,-32,-49
1747908220796.6868,227509,1747908220777.719,-180,-39,-49
1747908220816.531,227637,1747908220797.594,-202,-36,-45
1747908220836.406,227751,1747908220817.469,-202,-32,-33
1747908220856.25,227890,1747908220837.281,-213,-24,-25
1747908220876.125,227991,1747908220857.125,-221,-12,-19
1747908220895.937,228088,1747908220877.0,-205,0,-17
1747908220915.813,228118,1747908220896.875,-205,14,-17
1747908220935.688,228133,1747908220916.719,-188,15,-29
1747908220955.5308,228209,1747908220936.562,-189,11,-35
1747908220975.375,228449,1747908220956.437,-191,1,-50
1747908220995.25,228650,1747908220976.3132,-169,-8,-64
1747908221015.219,228725,1747908220996.156,-160,-10,-60
1747908221035.0,228767,1747908221016.031,-149,-25,-73
1747908221054.812,228886,1747908221035.906,-141,-21,-98
1747908221074.687,228950,1747908221055.781,-113,-10,-116
1747908221094.563,229014,1747908221075.594,-84,3,-144
1747908221114.438,229055,1747908221095.469,-57,9,-145
1747908221134.281,229159,1747908221115.375,-25,-6,-153
1747908221154.125,229264,1747908221135.25,-2,-1,-150
1747908221174.0,229436,1747908221155.031,12,7,-156
1747908221193.875,229719,1747908221174.937,28,3,-166
1747908221213.687,230162,1747908221194.781,44,3,-177
1747908221233.562,230601,1747908221214.625,27,5,-170
1747908221253.406,230971,1747908221234.5,38,7,-162
1747908221273.281,231208,1747908221254.313,23,14,-177
1747908221293.094,231234,1747908221274.187,7,6,-182
1747908221312.969,231076,1747908221294.031,-13,3,-178
1747908221332.844,230797,1747908221313.875,-33,-20,-168
1747908221352.688,230358,1747908221333.719,-48,-24,-159
1747908221372.5,229916,1747908221353.594,-64,-15,-153
1747908221392.375,229628,1747908221373.437,-80,-29,-145
1747908221412.219,229435,1747908221393.281,-82,-39,-141
1747908221432.094,229222,1747908221413.125,-89,-32,-129
1747908221451.938,229091,1747908221433.0,-88,-12,-106
1747908221471.781,229094,1747908221452.875,-89,3,-96
1747908221491.656,229177,1747908221472.719,-114,22,-84
1747908221511.531,229164,1747908221492.563,-141,35,-81
1747908221531.375,229120,1747908221512.438,-161,28,-76
1747908221551.219,229078,1747908221532.375,-180,5,-77
1747908221571.125,229059,1747908221552.125,-204,7,-64
1747908221591.0,229003,1747908221572.031,-218,7,-57
1747908221610.813,228981,1747908221591.906,-201,7,-53
1747908221630.688,228968,1747908221611.7808,-194,15,-33
1747908221650.531,228980,1747908221631.594,-200,14,-29
1747908221670.437,228984,1747908221651.469,-195,31,-24
1747908221690.25,228953,1747908221671.344,-204,33,-34
1747908221710.094,228955,1747908221691.188,-197,38,-41
1747908221729.969,228888,1747908221711.0,-180,28,-54
1747908221749.8118,228825,1747908221730.875,-163,22,-61
1747908221769.625,228721,1747908221750.719,-152,19,-57
1747908221789.594,228638,1747908221770.531,-130,16,-89
1747908221809.344,228597,1747908221790.406,-117,19,-104
1747908221829.187,228725,1747908221810.25,-103,11,-113
1747908221849.031,228942,1747908221830.094,-77,-7,-113
1747908221868.938,229126,1747908221850.0,-64,-12,-126
1747908221888.75,229303,1747908221869.875,-64,-8,-142
1747908221908.625,229414,1747908221889.625,-44,-23,-149
1747908221928.406,229575,1747908221909.531,-36,-17,-154
1747908221948.281,229783,1747908221929.344,-20,-13,-157
1747908221968.156,229967,1747908221949.219,-25,-15,-162
1747908221987.969,230161,1747908221969.031,-7,-10,-152
1747908222007.812,230204,1747908221988.875,-7,-5,-152
1747908222027.656,230133,1747908222008.781,3,2,-161
1747908222047.5,230061,1747908222028.594,-2,16,-168
1747908222067.375,230077,1747908222048.406,-16,14,-168
1747908222087.219,230110,1747908222068.281,-13,7,-170
1747908222107.031,230112,1747908222088.125,-23,14,-160
1747908222126.906,230073,1747908222108.031,-28,22,-170
1747908222146.75,230046,1747908222127.813,-26,20,-169
1747908222166.625,230040,1747908222147.656,-35,17,-169
1747908222186.438,230026,1747908222167.531,-49,15,-138
1747908222206.281,230084,1747908222187.344,-52,11,-121
1747908222226.125,230170,1747908222207.219,-77,-1,-90
1747908222246.031,230261,1747908222227.031,-92,-9,-81
1747908222265.875,230384,1747908222247.0,-100,-13,-64
1747908222285.719,230579,1747908222266.812,-117,-10,-58
1747908222305.594,230771,1747908222286.625,-152,-15,-55
1747908222325.406,230969,1747908222306.5,-176,-21,-64
1747908222345.25,231154,1747908222326.313,-197,-18,-72
1747908222365.094,231283,1747908222346.187,-209,-20,-76
1747908222384.937,231327,1747908222365.969,-209,-8,-80
1747908222404.812,231290,1747908222385.844,-223,-20,-64
1747908222424.656,231215,1747908222405.719,-226,-18,-64
1747908222444.5,231104,1747908222425.594,-210,-13,-61
1747908222464.469,230918,1747908222445.469,-209,6,-60
1747908222484.1868,230753,1747908222465.25,-205,7,-57
1747908222504.031,230581,1747908222485.125,-189,7,-64
1747908222523.938,230480,1747908222504.969,-192,7,-77
1747908222543.75,230433,1747908222524.844,-189,7,-84
1747908222563.625,230459,1747908222544.687,-154,-8,-89
1747908222583.437,230597,1747908222564.531,-146,-16,-100
1747908222603.281,230631,1747908222584.5,-124,-10,-104
1747908222623.156,230828,1747908222604.188,-88,-18,-114
1747908222643.0308,231157,1747908222624.062,-67,-20,-128
1747908222662.844,231395,1747908222643.937,-44,-6,-154
1747908222682.719,231652,1747908222663.781,-8,7,-144
1747908222702.563,231881,1747908222683.625,28,6,-145
1747908222722.438,232128,1747908222703.469,51,16,-141
1747908222742.25,232383,1747908222723.344,63,28,-138
1747908222762.094,232497,1747908222743.187,59,35,-153
1747908222781.969,232519,1747908222763.0,65,31,-153
1747908222801.875,232478,1747908222782.844,63,39,-173
1747908222821.687,232344,1747908222802.812,48,44,-164
1747908222841.531,232232,1747908222822.594,31,42,-185
1747908222861.406,232168,1747908222842.469,-4,30,-185
1747908222881.281,232140,1747908222862.313,-7,23,-177
1747908222901.063,232116,1747908222882.219,-21,19,-169
1747908222920.937,232179,1747908222902.0,-36,12,-159
1747908222940.781,232244,1747908222921.844,-42,7,-146
1747908222960.656,232314,1747908222941.656,-47,3,-137
1747908222980.469,232372,1747908222961.594,-67,-9,-96
1747908223000.375,232466,1747908222981.406,-72,-32,-74
1747908223020.187,232504,1747908223001.25,-93,-42,-48
1747908223040.031,232551,1747908223021.094,-116,-20,-49
1747908223059.875,232694,1747908223040.938,-153,-8,-64
1747908223079.719,232884,1747908223060.781,-189,-15,-89
1747908223099.5942,233060,1747908223080.656,-221,-16,-104
1747908223119.406,233170,1747908223100.469,-231,-13,-93
1747908223139.281,233116,1747908223120.375,-241,-21,-84
1747908223159.063,232898,1747908223140.156,-224,-17,-64
1747908223178.938,232543,1747908223160.031,-217,-9,-57
1747908223198.812,232168,1747908223179.844,-212,-1,-41
1747908223218.656,231837,1747908223199.687,-194,4,-47
1747908223238.469,231572,1747908223219.563,-201,-4,-57
1747908223258.313,231433,1747908223239.406,-210,-5,-74
1747908223278.188,231360,1747908223259.25,-188,-1,-85
1747908223298.031,231286,1747908223279.094,-174,-8,-92
1747908223317.875,231190,1747908223298.938,-160,2,-97
1747908223337.719,231100,1747908223318.813,-136,8,-104
1747908223357.594,231363,1747908223338.625,-106,15,-68
1747908223377.469,231717,1747908223358.5,-71,-28,-57
1747908223397.281,232062,1747908223378.406,-57,-40,-88
1747908223417.156,232365,1747908223398.25,-47,-2,-128
1747908223437.031,232742,1747908223418.063,-20,15,-153
1747908223456.875,233269,1747908223437.937,-5,15,-160
1747908223476.719,233837,1747908223457.812,24,9,-145
1747908223496.562,234328,1747908223477.656,35,-5,-150
1747908223516.406,234575,1747908223497.5,22,-5,-173
1747908223536.281,234679,1747908223517.313,15,3,-170
1747908223556.125,234642,1747908223537.219,12,-1,-168
1747908223575.937,234448,1747908223557.094,8,3,-160
1747908223595.813,234270,1747908223576.875,14,8,-161
1747908223615.656,234103,1747908223596.719,14,19,-166
1747908223635.5,233895,1747908223616.562,-5,20,-169
1747908223655.344,233731,1747908223636.437,-24,15,-161
1747908223675.281,233613,1747908223656.281,-20,6,-160
1747908223695.094,233512,1747908223676.125,-39,-8,-144
1747908223714.938,233423,1747908223696.031,-53,-21,-145
1747908223734.812,233285,1747908223715.875,-66,-8,-128
1747908223754.656,233206,1747908223735.719,-87,-10,-121
1747908223774.5,233110,1747908223755.563,-92,-20,-101
1747908223794.375,232978,1747908223775.438,-110,-9,-81
1747908223814.219,232788,1747908223795.312,-121,-29,-81
1747908223834.094,232593,1747908223815.156,-145,-33,-70
1747908223853.969,232451,1747908223835.031,-162,-40,-49
1747908223873.813,232293,1747908223854.844,-173,-45,-64
1747908223893.625,232175,1747908223874.719,-185,-36,-80
1747908223913.5,232088,1747908223894.687,-205,-40,-74
1747908223933.375,232003,1747908223914.438,-210,-34,-64
1747908223953.188,231902,1747908223934.25,-221,-13,-55
1747908223973.063,231777,1747908223954.125,-209,-18,-49
1747908223993.062,231652,1747908223973.969,-212,-8,-41
1747908224012.781,231507,1747908223993.938,-207,-1,-49
1747908224032.625,231361,1747908224013.688,-191,3,-63
1747908224052.469,231220,1747908224033.563,-177,-1,-64
1747908224072.313,231161,1747908224053.375,-160,4,-73
1747908224092.219,231083,1747908224073.25,-146,-13,-87
1747908224112.031,231011,1747908224093.125,-130,-15,-84
1747908224131.906,230954,1747908224112.969,-113,-15,-98
1747908224151.781,230942,1747908224132.812,-101,-13,-106
1747908224171.625,231044,1747908224152.687,-85,-15,-113
1747908224191.469,231176,1747908224172.531,-72,-24,-112
1747908224211.344,231305,1747908224192.406,-64,-24,-138
1747908224231.188,231360,1747908224212.281,-52,-12,-136
1747908224251.062,231422,1747908224232.125,-54,-5,-153
1747908224270.906,231443,1747908224252.0,-45,-12,-153
1747908224290.75,231438,1747908224271.875,-24,6,-144
1747908224310.656,231415,1747908224291.656,3,14,-159
1747908224330.5,231362,1747908224311.562,11,14,-162
1747908224350.344,231333,1747908224331.406,7,25,-162
1747908224370.219,231300,1747908224351.25,15,23,-157
1747908224390.063,231294,1747908224371.094,20,20,-144
1747908224409.938,231236,1747908224390.969,47,16,-145
1747908224429.781,231149,1747908224410.844,23,23,-144
1747908224449.625,231045,1747908224430.75,8,15,-151
1747908224469.5,230931,1747908224450.563,-20,-1,-153
1747908224489.375,230823,1747908224470.438,-25,1,-145
1747908224509.219,230656,1747908224490.281,-40,1,-137
1747908224529.031,230526,1747908224510.156,-45,-10,-134
1747908224548.906,230452,1747908224529.938,-55,-12,-141
1747908224568.75,230302,1747908224549.844,-87,-4,-138
1747908224588.594,230160,1747908224569.656,-120,-18,-156
1747908224608.437,229928,1747908224589.5,-140,-16,-162
1747908224628.281,229711,1747908224609.344,-142,-16,-157
1747908224648.1882,229601,1747908224629.188,-120,-28,-113
1747908224668.0,229517,1747908224649.094,-132,-18,-89
1747908224687.844,229467,1747908224668.937,-140,-13,-95
1747908224707.719,229399,1747908224688.781,-140,-7,-96
1747908224727.531,229351,1747908224708.594,-148,-24,-96
1747908224747.375,229293,1747908224728.469,-155,-24,-101
1747908224767.25,229212,1747908224748.312,-167,-24,-80
1747908224787.0942,229201,1747908224768.156,-176,-26,-64
1747908224806.937,229133,1747908224787.969,-177,-15,-64
1747908224826.813,229044,1747908224807.844,-168,-4,-64
1747908224846.594,228878,1747908224827.688,-172,7,-64
1747908224866.469,228712,1747908224847.531,-172,8,-81
1747908224886.312,228508,1747908224867.344,-164,9,-80
1747908224906.156,228293,1747908224887.219,-158,7,-89
1747908224926.0,228046,1747908224907.063,-134,12,-96
1747908224945.844,227740,1747908224926.969,-116,16,-124
1747908224965.719,227420,1747908224946.781,-132,2,-145
1747908224985.562,227313,1747908224966.625,-109,-24,-154
1747908225005.406,227335,1747908224986.5,-93,-10,-153
1747908225025.25,227517,1747908225006.344,-64,6,-128
1747908225045.094,227697,1747908225026.156,-41,22,-118
1747908225064.969,227861,1747908225046.031,-42,14,-124
1747908225084.781,228048,1747908225065.875,-5,22,-145
1747908225104.656,228260,1747908225085.719,-16,19,-160
1747908225124.5,228549,1747908225105.594,-1,8,-148
1747908225144.375,228901,1747908225125.406,19,0,-141
1747908225164.187,229294,1747908225145.281,44,7,-153
1747908225184.062,229625,1747908225165.125,51,12,-160
1747908225203.938,229801,1747908225184.969,60,8,-193
1747908225223.781,229805,1747908225204.844,56,28,-173
1747908225243.594,229762,1747908225224.656,71,24,-173
1747908225263.437,229697,1747908225244.531,60,24,-174
1747908225283.313,229655,1747908225264.344,31,19,-185
1747908225303.156,229672,1747908225284.219,12,9,-192
1747908225323.0,229641,1747908225304.062,-2,12,-188
1747908225342.844,229657,1747908225323.906,3,19,-177
1747908225362.687,229695,1747908225343.75,3,15,-155
1747908225382.5632,229652,1747908225363.594,2,17,-137
1747908225402.406,229568,1747908225383.5,3,24,-121
1747908225422.25,229570,1747908225403.344,-1,19,-105
1747908225442.125,229547,1747908225423.156,-62,-2,-96
1747908225461.969,229583,1747908225443.0,-124,-36,-114
1747908225481.781,229687,1747908225462.875,-140,-61,-113
1747908225501.656,229768,1747908225482.75,-132,-39,-97
1747908225521.5,229814,1747908225502.594,-136,-23,-89
1747908225541.344,229771,1747908225522.406,-154,-32,-98
1747908225561.188,229523,1747908225542.281,-169,-18,-114
1747908225581.031,229001,1747908225562.125,-170,-5,-130
1747908225600.875,228409,1747908225581.969,-184,-10,-128
1747908225620.75,227945,1747908225601.8118,-220,-36,-128
1747908225640.594,227925,1747908225621.688,-244,-68,-136
1747908225660.438,228080,1747908225641.5,-215,-82,-82
1747908225680.281,228174,1747908225661.375,-186,-57,-61
1747908225700.156,228117,1747908225681.219,-161,-8,-60
1747908225720.0,227984,1747908225701.031,-141,31,-63
1747908225739.813,227770,1747908225720.938,-132,33,-58
1747908225759.688,227534,1747908225740.75,-101,49,-61
1747908225779.531,227298,1747908225760.562,-113,52,-76
1747908225799.406,227135,1747908225780.437,-109,48,-108
1747908225819.219,227140,1747908225800.313,-107,56,-128
1747908225839.094,227276,1747908225820.156,-84,46,-122
1747908225858.906,227498,1747908225840.0,-64,47,-121
1747908225878.781,227724,1747908225859.812,-34,32,-114
1747908225898.625,228067,1747908225879.687,-38,19,-125
1747908225918.469,228517,1747908225899.563,-17,22,-145
1747908225938.313,229074,1747908225919.375,-4,31,-154
1747908225958.188,229506,1747908225939.219,8,23,-149
1747908225977.969,229568,1747908225959.094,31,22,-145
1747908225997.844,229439,1747908225978.906,39,11,-157
1747908226017.688,229368,1747908225998.75,0,-4,-177
1747908226037.531,229390,1747908226018.594,3,-10,-183
1747908226057.375,229414,1747908226038.437,-2,-12,-181
1747908226077.219,229385,1747908226058.344,-15,-17,-177
1747908226097.094,229205,1747908226078.156,0,-29,-170
1747908226116.969,228921,1747908226098.0,-4,-29,-160
1747908226136.813,228649,1747908226117.875,-26,-37,-173
1747908226156.594,228433,1747908226137.687,-64,-33,-160
1747908226176.469,228378,1747908226157.531,-77,-16,-170
1747908226196.312,228530,1747908226177.375,-96,-15,-160
1747908226216.156,228615,1747908226197.219,-119,-28,-157
1747908226236.0,228505,1747908226217.094,-128,-18,-150
1747908226255.8442,228359,1747908226236.937,-116,-8,-125
1747908226275.719,228243,1747908226256.781,-116,7,-81
1747908226295.563,228158,1747908226276.594,-114,12,-57
1747908226315.375,228134,1747908226296.469,-116,18,-49
1747908226335.25,228148,1747908226316.312,-121,23,-41
1747908226355.156,228124,1747908226336.125,-113,20,-26
1747908226374.937,228015,1747908226356.094,-121,20,-17
1747908226394.781,227650,1747908226375.875,-143,12,-38
1747908226414.625,227269,1747908226395.75,-215,-16,-50
1747908226434.469,226982,1747908226415.562,-257,-26,-46
1747908226454.375,226815,1747908226435.406,-234,-34,-39
1747908226474.25,226721,1747908226455.281,-242,-50,-56
1747908226494.031,226665,1747908226475.094,-258,-57,-72
1747908226513.906,226665,1747908226494.937,-244,-50,-85
1747908226533.781,226519,1747908226514.781,-232,-48,-81
1747908226553.594,226337,1747908226534.656,-218,-37,-89
1747908226573.469,226094,1747908226554.5,-188,-17,-81
1747908226593.313,225790,1747908226574.344,-150,-16,-64
1747908226613.187,225578,1747908226594.219,-110,-16,-57
1747908226633.031,225485,1747908226614.125,-72,-10,-54
1747908226652.844,225465,1747908226633.969,-64,-13,-87
1747908226672.719,225355,1747908226653.781,-37,-5,-101
1747908226692.594,225195,1747908226673.656,-25,11,-113
1747908226712.406,224936,1747908226693.5,-22,12,-128
1747908226732.281,224667,1747908226713.344,-15,-1,-161
1747908226752.125,224586,1747908226733.188,1,3,-160
1747908226771.969,224634,1747908226753.031,25,8,-168
1747908226791.812,224674,1747908226772.906,35,17,-180
1747908226811.687,224681,1747908226792.75,31,16,-192
1747908226831.5,224604,1747908226812.563,8,14,-176
1747908226851.344,224524,1747908226832.438,8,16,-160
1747908226871.188,224479,1747908226852.25,4,17,-177
1747908226891.031,224467,1747908226872.125,-4,16,-191
1747908226910.875,224580,1747908226891.937,-9,22,-189
1747908226930.719,224636,1747908226911.781,-15,19,-177
1747908226950.563,224642,1747908226931.6558,-20,18,-166
1747908226970.438,224630,1747908226951.531,-49,12,-148
1747908226990.25,224564,1747908226971.344,-57,19,-145
1747908227010.125,224505,1747908226991.125,-65,7,-133
1747908227030.0,224325,1747908227011.031,-74,4,-105
1747908227049.781,223957,1747908227030.937,-80,6,-80
1747908227069.625,223435,1747908227050.719,-101,4,-64
1747908227089.531,222917,1747908227070.531,-113,4,-57
1747908227109.344,222452,1747908227090.469,-129,-20,-64
1747908227129.156,222171,1747908227110.25,-149,-45,-64
1747908227149.031,222100,1747908227130.094,-192,-74,-64
1747908227168.844,222121,1747908227149.937,-224,-76,-74
1747908227188.687,222239,1747908227169.75,-223,-75,-74
1747908227208.531,222267,1747908227189.625,-225,-62,-59
1747908227228.375,222174,1747908227209.469,-240,-46,-44
1747908227248.25,221953,1747908227229.312,-223,-27,-58
1747908227268.094,221684,1747908227249.156,-220,-12,-64
1747908227287.906,221436,1747908227268.969,-202,-8,-63
1747908227307.75,221249,1747908227288.844,-199,-8,-72
1747908227327.625,221098,1747908227308.656,-185,-8,-53
1747908227347.469,220871,1747908227328.531,-157,-8,-57
1747908227367.281,220655,1747908227348.375,-135,-7,-72
1747908227387.125,220381,1747908227368.25,-110,8,-85
1747908227407.031,220079,1747908227388.063,-101,0,-92
1747908227426.875,219826,1747908227407.938,-79,-10,-97
1747908227446.687,219623,1747908227427.75,-48,-9,-121
1747908227466.687,219489,1747908227447.656,-34,-10,-127
1747908227486.406,219345,1747908227467.563,-13,-2,-125
1747908227506.25,219254,1747908227487.281,12,24,-132
1747908227526.063,219158,1747908227507.187,19,15,-154
1747908227545.937,219002,1747908227527.0,35,9,-169
1747908227565.781,218886,1747908227546.844,44,15,-164
1747908227585.656,218856,1747908227566.688,22,22,-157
1747908227605.469,219028,1747908227586.531,14,33,-169
1747908227625.313,219120,1747908227606.406,-9,44,-170
1747908227645.187,219263,1747908227626.25,-46,34,-165
1747908227665.0,219626,1747908227646.094,-84,15,-169
1747908227684.875,219857,1747908227665.906,-112,-8,-177
1747908227704.688,219580,1747908227685.781,-102,-5,-157
1747908227724.562,219093,1747908227705.625,-104,-4,-128
1747908227744.406,218533,1747908227725.437,-106,-14,-112
1747908227764.25,217965,1747908227745.313,-100,-9,-64
1747908227784.063,217574,1747908227765.156,-82,-1,-46
1747908227803.938,217333,1747908227785.0,-98,-13,-34
1747908227823.781,217157,1747908227804.844,-101,-16,-34
1747908227843.625,217129,1747908227824.687,-121,-23,-25
1747908227863.437,217155,1747908227844.531,-153,-40,-45
1747908227883.281,217212,1747908227864.406,-193,-68,-49
1747908227903.156,217199,1747908227884.187,-218,-84,-57
1747908227923.125,217159,1747908227904.062,-226,-80,-34
1747908227942.875,217064,1747908227923.938,-225,-65,-33
1747908227962.688,216862,1747908227943.813,-228,-45,-26
1747908227982.531,216629,1747908227963.594,-229,-32,-18
1747908228002.375,216407,1747908227983.437,-213,-21,-29
1747908228022.312,216229,1747908228003.281,-216,-20,-34
1747908228042.062,216036,1747908228023.25,-196,-25,-39
1747908228061.906,215853,1747908228042.969,-196,-20,-49
1747908228081.75,215690,1747908228062.813,-168,-15,-48
1747908228101.594,215489,1747908228082.687,-157,-13,-55
1747908228121.437,215269,1747908228102.562,-152,-24,-61
1747908228141.313,214981,1747908228122.375,-132,-25,-78
1747908228161.156,214705,1747908228142.219,-119,-25,-81
1747908228180.969,214460,1747908228162.031,-111,-26,-87
1747908228200.844,214246,1747908228181.969,-103,-30,-100
1747908228220.656,214172,1747908228201.781,-89,-21,-100
1747908228240.531,214301,1747908228221.563,-80,-20,-96
1747908228260.406,214444,1747908228241.438,-57,-16,-100
1747908228280.219,214579,1747908228261.312,-21,-7,-106
1747908228300.094,214692,1747908228281.187,3,14,-121
1747908228319.937,214832,1747908228301.0,12,31,-128
1747908228339.813,214976,1747908228320.844,14,41,-145
1747908228359.625,215129,1747908228340.719,19,46,-162
1747908228379.469,215161,1747908228360.531,32,51,-177
1747908228399.312,215038,1747908228380.406,18,47,-178
1747908228419.156,214840,1747908228400.219,-16,47,-184
1747908228438.969,214605,1747908228420.094,-52,41,-202
1747908228458.844,214587,1747908228439.937,-65,55,-202
1747908228478.687,214751,1747908228459.75,-61,22,-180
1747908228498.531,214799,1747908228479.594,-72,17,-159
1747908228518.344,214702,1747908228499.406,-65,15,-136
1747908228538.188,214453,1747908228519.313,-66,11,-122
1747908228558.031,214113,1747908228539.094,-95,4,-104
1747908228577.875,213627,1747908228558.937,-105,-4,-90
1747908228597.687,212997,1747908228578.813,-97,1,-56
1747908228617.563,212605,1747908228598.656,-98,-9,-42
1747908228637.406,212557,1747908228618.469,-98,-45,-54
1747908228657.25,212757,1747908228638.312,-137,-65,-61
1747908228677.094,213114,1747908228658.187,-178,-81,-81
1747908228696.937,213425,1747908228678.031,-217,-72,-90
1747908228716.781,213596,1747908228697.875,-220,-81,-89
1747908228736.656,213690,1747908228717.688,-208,-76,-81
1747908228756.5,213638,1747908228737.562,-223,-63,-80
1747908228776.344,213438,1747908228757.406,-205,-45,-97
1747908228796.187,213109,1747908228777.25,-192,-40,-93
1747908228816.031,212716,1747908228797.094,-190,-36,-90
1747908228835.875,212359,1747908228816.937,-169,-37,-89
1747908228855.687,212027,1747908228836.781,-157,-40,-74
1747908228875.531,211690,1747908228856.625,-160,-48,-82
1747908228895.375,211406,1747908228876.438,-133,-36,-89
1747908228915.219,211212,1747908228896.313,-104,-20,-95
1747908228935.031,211143,1747908228916.125,-87,-8,-96
1747908228954.875,211206,1747908228935.969,-61,-2,-107
1747908228974.75,211324,1747908228955.812,-52,11,-114
1747908228994.688,211408,1747908228975.656,-40,19,-121
1747908229014.406,211456,1747908228995.594,-15,31,-113
1747908229034.281,211496,1747908229015.375,-4,31,-106
1747908229054.125,211550,1747908229035.219,-9,31,-116
1747908229074.0,211556,1747908229055.031,3,32,-128
1747908229093.813,211404,1747908229074.906,12,48,-153
1747908229113.656,211173,1747908229094.781,4,44,-169
1747908229133.5,210962,1747908229114.562,0,32,-177
1747908229153.375,210962,1747908229134.406,-20,24,-180
1747908229173.187,211097,1747908229154.281,-44,16,-185
1747908229193.063,211198,1747908229174.156,-57,15,-176
1747908229212.9058,211366,1747908229194.0,-72,15,-181
1747908229232.781,211433,1747908229213.844,-83,17,-166
1747908229252.625,211312,1747908229233.75,-61,13,-127
1747908229272.469,211166,1747908229253.563,-49,12,-93
1747908229292.313,211021,1747908229273.438,-61,6,-82
1747908229312.187,210922,1747908229293.25,-74,4,-64
1747908229332.094,210789,1747908229313.094,-101,-1,-57
1747908229351.844,210666,1747908229333.031,-104,-10,-52
1747908229371.719,210630,1747908229352.781,-119,-17,-61
1747908229391.563,210699,1747908229372.625,-149,-43,-73
1747908229411.406,210854,1747908229392.469,-189,-68,-64
1747908229431.219,210896,1747908229412.312,-192,-73,-58
1747908229451.062,210873,1747908229432.188,-205,-77,-50
1747908229470.906,210765,1747908229452.0,-221,-80,-50
1747908229490.781,210621,1747908229471.844,-218,-65,-50
1747908229510.562,210426,1747908229491.687,-225,-48,-49
1747908229530.437,210182,1747908229511.531,-212,-40,-38
1747908229550.313,209855,1747908229531.344,-214,-28,-49
1747908229570.125,209568,1747908229551.188,-208,-34,-57
1747908229589.969,209332,1747908229571.031,-191,-36,-57
1747908229609.812,209132,1747908229590.906,-177,-29,-55
1747908229629.656,208892,1747908229610.719,-170,-20,-57
1747908229649.531,208603,1747908229630.563,-168,-18,-77
1747908229669.344,208342,1747908229650.438,-169,-26,-64
1747908229689.188,208079,1747908229670.281,-145,-26,-61
1747908229709.031,207910,1747908229690.094,-137,-32,-81
1747908229728.875,207921,1747908229709.938,-118,-32,-89
1747908229748.688,208053,1747908229729.781,-74,-22,-90
1747908229768.563,208192,1747908229749.656,-33,-15,-89
1747908229788.406,208345,1747908229769.5,-9,-1,-109
1747908229808.25,208458,1747908229789.344,8,-1,-130
1747908229828.219,208621,1747908229809.188,22,3,-123
1747908229847.938,208813,1747908229829.031,28,15,-137
1747908229867.813,208964,1747908229848.875,33,22,-161
1747908229887.656,209090,1747908229868.719,17,24,-161
1747908229907.531,209083,1747908229888.562,-7,25,-177
1747908229927.344,208925,1747908229908.469,-32,31,-179
1747908229947.188,208750,1747908229928.281,-42,25,-166
1747908229967.031,208614,1747908229948.094,-63,13,-169
1747908229986.906,208374,1747908229967.937,-68,3,-149
1747908230006.719,208150,1747908229987.813,-65,7,-153
1747908230026.656,208039,1747908230007.656,-64,19,-128
1747908230046.469,207985,1747908230027.5,-76,12,-104
1747908230066.312,207923,1747908230047.375,-96,7,-86
1747908230086.156,207815,1747908230067.25,-100,-8,-81
1747908230106.0,207420,1747908230087.094,-97,-9,-53
1747908230125.844,206887,1747908230106.938,-97,-13,-33
1747908230145.688,206630,1747908230126.781,-119,-13,-26
1747908230165.531,206909,1747908230146.625,-136,-31,-17
1747908230185.375,207300,1747908230166.469,-204,-72,-25
1747908230205.25,207557,1747908230186.281,-223,-81,-33
1747908230225.188,207733,1747908230206.156,-244,-81,-40
1747908230244.969,207693,1747908230226.031,-253,-89,-40
1747908230264.781,207461,1747908230245.906,-267,-84,-57
1747908230284.625,207024,1747908230265.688,-242,-68,-38
1747908230304.469,206450,1747908230285.531,-223,-36,-25
1747908230324.406,205934,1747908230305.406,-226,-20,-23
1747908230344.156,205597,1747908230325.344,-208,-13,-18
1747908230364.0,205353,1747908230345.094,-192,-8,-12
1747908230384.0,205102,1747908230364.938,-176,-18,-13
1747908230403.688,204930,1747908230384.906,-181,-13,-25
1747908230423.531,204868,1747908230404.625,-161,-28,-49
1747908230443.375,204993,1747908230424.469,-151,-25,-73
1747908230463.25,205253,1747908230444.281,-114,-32,-87
1747908230483.063,205534,1747908230464.156,-86,-39,-93
1747908230502.906,205784,1747908230484.062,-81,-32,-121
1747908230522.75,206015,1747908230503.844,-72,-16,-128
1747908230542.625,206274,1747908230523.656,-65,-4,-128
1747908230562.437,206535,1747908230543.5,-46,9,-121
1747908230582.25,206799,1747908230563.375,-24,12,-118
1747908230602.125,207068,1747908230583.219,-7,11,-113
1747908230622.0,207301,1747908230603.062,-7,16,-116
1747908230641.844,207492,1747908230622.875,-13,15,-138
1747908230661.656,207547,1747908230642.75,0,16,-158
1747908230681.469,207447,1747908230662.563,7,17,-185
1747908230701.313,207390,1747908230682.375,-1,14,-173
1747908230721.187,207364,1747908230702.219,-20,7,-168
1747908230741.0,207220,1747908230722.062,-10,-8,-160
1747908230760.844,207077,1747908230741.906,-29,0,-145
1747908230780.688,207221,1747908230761.75,-25,-14,-128
1747908230800.531,207875,1747908230781.594,-52,-17,-130
1747908230820.344,208925,1747908230801.437,-95,-18,-141
1747908230840.187,209804,1747908230821.281,-121,-20,-106
1747908230860.031,210369,1747908230841.125,-151,-15,-97
1747908230879.875,210504,1747908230860.938,-176,-12,-81
1747908230899.719,210333,1747908230880.781,-161,-7,-56
1747908230919.562,210002,1747908230900.687,-157,11,-26
1747908230939.406,209695,1747908230920.5,-157,16,-5
1747908230959.344,209457,1747908230940.313,-153,-1,7
1747908230979.094,209285,1747908230960.25,-154,-17,7
1747908230998.938,209130,1747908230980.031,-169,-33,-17
1747908231018.812,209052,1747908230999.906,-207,-42,-29
1747908231038.625,208976,1747908231019.719,-225,-51,-25
1747908231058.469,208865,1747908231039.531,-234,-42,-39
1747908231078.438,208815,1747908231059.375,-237,-34,-52
1747908231098.156,208753,1747908231079.219,-222,-32,-45
1747908231118.0,208696,1747908231099.094,-210,-30,-33
1747908231137.875,208602,1747908231118.938,-213,-20,-26
1747908231157.688,208532,1747908231138.781,-217,-20,-16
1747908231177.563,208390,1747908231158.6558,-221,-20,-11
1747908231197.375,208206,1747908231178.469,-212,-18,-8
1747908231217.25,207935,1747908231198.281,-207,-18,-9
1747908231237.094,207665,1747908231218.188,-193,-13,-12
1747908231256.938,207393,1747908231238.031,-167,-8,-26
1747908231276.813,207227,1747908231257.875,-136,-8,-33
1747908231296.781,207180,1747908231277.719,-114,2,-51
1747908231316.469,207275,1747908231297.688,-116,-1,-64
1747908231336.344,207364,1747908231317.438,-81,3,-89
1747908231356.25,207354,1747908231337.281,-64,-1,-104
1747908231376.062,207311,1747908231357.156,-33,-15,-116
1747908231395.906,207362,1747908231376.969,-29,-15,-115
1747908231415.75,207596,1747908231396.844,-17,-13,-125
1747908231435.594,208009,1747908231416.688,-4,-16,-152
1747908231455.469,208611,1747908231436.5,14,-2,-170
1747908231475.281,209483,1747908231456.406,20,11,-180
1747908231495.156,210173,1747908231476.219,-1,23,-176
1747908231515.0,210553,1747908231496.094,-36,23,-189
1747908231534.875,210780,1747908231515.906,-72,3,-192
1747908231554.688,210878,1747908231535.844,-97,-7,-192
1747908231574.562,210837,1747908231555.594,-85,-8,-185
1747908231594.406,210701,1747908231575.5,-87,-13,-160
1747908231614.25,210422,1747908231595.313,-72,-23,-123
1747908231634.187,210182,1747908231615.187,-73,-25,-96
1747908231653.937,210185,1747908231635.156,-79,-23,-89
1747908231673.812,210164,1747908231654.906,-80,-17,-74
1747908231693.656,210060,1747908231674.719,-102,-22,-49
1747908231713.5,209932,1747908231694.563,-125,-29,-31
1747908231733.344,209845,1747908231714.437,-161,-25,-35
1747908231753.312,209571,1747908231734.312,-189,-16,-32
1747908231773.062,209020,1747908231754.094,-208,0,-33
1747908231792.938,208588,1747908231773.969,-212,3,-52
1747908231812.75,208334,1747908231793.875,-221,-18,-81
1747908231832.625,208226,1747908231813.687,-220,-20,-72
1747908231852.469,208076,1747908231833.531,-218,-20,-77
1747908231872.344,207904,1747908231853.344,-218,-18,-53
1747908231892.156,207713,1747908231873.312,-208,-13,-42
1747908231912.031,207554,1747908231893.094,-201,-7,-41
1747908231931.844,207345,1747908231912.937,-207,-8,-43
1747908231951.719,207139,1747908231932.75,-178,-9,-57
1747908231971.531,206930,1747908231952.625,-162,-5,-58
1747908231991.375,206738,1747908231972.469,-145,-10,-73
1747908232011.25,206600,1747908231992.312,-148,-17,-106
1747908232031.094,206516,1747908232012.156,-136,-13,-128
1747908232050.937,206494,1747908232032.031,-116,-16,-128
1747908232070.781,206577,1747908232051.875,-69,-21,-113
1747908232090.75,206719,1747908232071.719,-24,-25,-102
1747908232110.5,206857,1747908232091.531,-31,-16,-113
1747908232130.344,207055,1747908232111.406,-29,-7,-113
1747908232150.188,207199,1747908232131.281,-1,6,-113
1747908232170.031,207362,1747908232151.094,8,12,-128
1747908232189.875,207607,1747908232170.969,8,27,-154
1747908232209.719,207922,1747908232190.781,16,35,-180
1747908232229.562,208253,1747908232210.75,25,47,-184
1747908232249.406,208543,1747908232230.469,34,67,-177
1747908232269.281,208776,1747908232250.344,25,68,-169
1747908232289.094,208922,1747908232270.156,-1,48,-169
1747908232309.062,209012,1747908232290.062,-32,33,-166
1747908232328.781,209020,1747908232310.0,-53,20,-177
1747908232348.656,208953,1747908232329.719,-84,7,-177
1747908232368.469,208810,1747908232349.531,-80,6,-157
1747908232388.344,208725,1747908232369.437,-80,9,-117
1747908232408.187,208634,1747908232389.25,-74,6,-91
1747908232428.031,208545,1747908232409.094,-77,12,-64
1747908232447.875,208431,1747908232429.0,-82,14,-37
1747908232467.688,208241,1747908232448.781,-95,-4,-17
1747908232487.562,208052,1747908232468.656,-109,-8,3
1747908232507.437,207846,1747908232488.469,-162,-39,-1
1747908232527.313,207636,1747908232508.344,-218,-50,-32
1747908232547.125,207388,1747908232528.219,-264,-36,-57
1747908232567.0,207254,1747908232548.062,-245,-44,-52
1747908232586.844,207162,1747908232567.906,-241,-53,-50
1747908232606.688,207102,1747908232587.781,-243,-55,-64
1747908232626.531,207073,1747908232607.594,-250,-40,-73
1747908232646.531,206984,1747908232627.5,-241,-32,-64
1747908232666.219,206883,1747908232647.438,-223,-38,-64
1747908232686.094,206791,1747908232667.125,-205,-45,-64
1747908232705.906,206763,1747908232687.0,-205,-40,-72
1747908232725.75,206795,1747908232706.875,-209,-42,-77
1747908232745.594,206837,1747908232726.656,-193,-54,-82
1747908232765.4368,206885,1747908232746.531,-144,-61,-82
1747908232785.25,207003,1747908232766.375,-103,-36,-65
1747908232805.125,207181,1747908232786.188,-83,-32,-57
1747908232824.938,207360,1747908232806.031,-61,-15,-64
1747908232844.812,207546,1747908232825.875,-36,-9,-81
1747908232864.625,207699,1747908232845.719,-21,-7,-89
1747908232884.5,207847,1747908232865.531,-18,5,-109
1747908232904.313,208037,1747908232885.406,-17,11,-137
1747908232924.156,208246,1747908232905.219,-16,22,-145
1747908232944.0,208510,1747908232925.062,-4,31,-161
1747908232963.812,208687,1747908232944.875,3,32,-177
1747908232983.656,208793,1747908232964.75,-4,40,-178
1747908233003.531,208813,1747908232984.688,-1,47,-178
1747908233023.469,208831,1747908233004.437,3,44,-168
1747908233043.187,208777,1747908233024.406,-16,47,-160
1747908233063.062,208714,1747908233044.125,-21,63,-162
1747908233082.906,208750,1747908233063.969,-37,41,-161
1747908233102.813,208905,1747908233083.813,-57,41,-153
1747908233122.563,209138,1747908233103.656,-57,47,-128
1747908233142.437,209371,1747908233123.5,-52,57,-139
1747908233162.281,209553,1747908233143.375,-64,52,-113
1747908233182.125,209622,1747908233163.188,-84,51,-96
1747908233201.969,209543,1747908233183.031,-89,35,-73
1747908233221.812,209332,1747908233202.906,-100,18,-64
1747908233241.656,209099,1747908233222.75,-116,-1,-55
1747908233261.531,208861,1747908233242.594,-145,-28,-41
1747908233281.344,208788,1747908233262.438,-178,-42,-30
1747908233301.188,208855,1747908233282.281,-200,-47,-29
1747908233321.094,209066,1747908233302.094,-189,-57,-32
1747908233340.906,209237,1747908233322.125,-208,-57,-49
1747908233360.75,209336,1747908233341.844,-249,-84,-63
1747908233380.594,209337,1747908233361.688,-260,-81,-61
1747908233400.469,209227,1747908233381.5,-227,-49,-54
1747908233420.312,209095,1747908233401.375,-208,-40,-58
1747908233440.125,208856,1747908233421.25,-194,-32,-64
1747908233460.0,208605,1747908233441.063,-205,-20,-72
1747908233479.844,208315,1747908233460.938,-199,-21,-76
1747908233499.687,208195,1747908233480.719,-177,-24,-64
1747908233519.531,208140,1747908233500.594,-168,-17,-64
1747908233539.375,208091,1747908233520.469,-132,-10,-64
1747908233559.25,208023,1747908233540.313,-98,-4,-105
1747908233579.125,208050,1747908233560.187,-82,7,-110
1747908233598.937,208332,1747908233580.031,-56,7,-81
1747908233618.781,209154,1747908233599.875,-25,9,-58
1747908233638.625,210043,1747908233619.688,-13,9,-81
1747908233658.469,210859,1747908233639.5,-25,31,-105
1747908233678.313,211576,1747908233659.344,-38,40,-128
1747908233698.156,212122,1747908233679.25,-53,43,-144
1747908233718.0,212601,1747908233699.094,-50,32,-160
1747908233737.875,212947,1747908233718.9382,-39,47,-182
1747908233757.75,213256,1747908233738.781,-29,19,-184
1747908233777.531,213536,1747908233758.625,-31,15,-192
1747908233797.406,213639,1747908233778.5,-15,-9,-195
1747908233817.281,213728,1747908233798.313,15,-20,-169
1747908233837.094,213943,1747908233818.188,8,-30,-164
1747908233856.938,214238,1747908233838.0,17,-29,-160
1747908233876.812,214456,1747908233857.875,9,-29,-153
1747908233896.656,214615,1747908233877.719,-1,-24,-146
1747908233916.531,214742,1747908233897.531,-6,-16,-127
1747908233936.344,214847,1747908233917.406,-32,-10,-153
1747908233956.187,214991,1747908233937.3118,-68,15,-157
1747908233976.062,215089,1747908233957.094,-76,34,-169
1747908233995.906,215102,1747908233976.969,-116,38,-185
1747908234015.75,215086,1747908233996.844,-121,40,-164
1747908234035.625,214901,1747908234016.687,-141,24,-120
1747908234055.469,214702,1747908234036.531,-125,4,-82
1747908234075.344,214446,1747908234056.375,-121,-1,-64
1747908234095.156,214239,1747908234076.219,-103,15,-32
1747908234115.0,214056,1747908234096.094,-101,22,-25
1747908234134.969,213859,1747908234115.937,-137,14,-31
1747908234154.75,213733,1747908234135.906,-164,6,-62
1747908234174.562,213703,1747908234155.688,-194,-17,-74
1747908234194.438,213785,1747908234175.5,-208,-21,-87
1747908234214.281,213785,1747908234195.312,-216,-36,-89
1747908234234.125,213699,1747908234215.187,-225,-40,-94
1747908234253.969,213611,1747908234235.063,-208,-36,-106
1747908234273.844,213468,1747908234254.906,-185,-32,-105
1747908234293.688,213388,1747908234274.75,-178,-34,-101
1747908234313.562,213351,1747908234294.625,-168,-40,-97
1747908234333.406,213330,1747908234314.469,-160,-34,-82
1747908234353.219,213381,1747908234334.344,-141,-29,-82
1747908234373.063,213514,1747908234354.156,-137,-13,-93
1747908234392.938,213629,1747908234373.969,-120,-8,-103
1747908234412.75,213686,1747908234393.844,-105,23,-89
1747908234432.625,213773,1747908234413.687,-64,-2,-82
1747908234452.437,213927,1747908234433.563,-57,3,-92
1747908234472.313,214190,1747908234453.375,-25,3,-112
1747908234492.188,214457,1747908234473.219,-13,16,-128
1747908234512.0,214881,1747908234493.094,-21,20,-130
1747908234531.844,215482,1747908234512.938,-10,12,-128
1747908234551.719,216000,1747908234532.781,14,7,-169
1747908234571.594,216353,1747908234552.625,7,14,-196
1747908234591.406,216531,1747908234572.562,-16,28,-192
1747908234611.25,216544,1747908234592.344,-41,28,-181
1747908234631.125,216425,1747908234612.156,-48,28,-173
1747908234650.969,216275,1747908234632.031,-49,28,-168
1747908234670.844,216134,1747908234651.875,-68,22,-167
1747908234690.656,216045,1747908234671.812,-76,17,-160
1747908234710.5,216215,1747908234691.562,-68,35,-136
1747908234730.344,216657,1747908234711.406,-57,32,-114
1747908234750.156,217368,1747908234731.25,-81,51,-94
1747908234770.0,218003,1747908234751.094,-81,12,-81
1747908234789.875,218367,1747908234770.937,-109,4,-73
1747908234809.719,218762,1747908234790.781,-129,0,-72
1747908234829.563,219019,1747908234810.594,-136,12,-64
1747908234849.406,218940,1747908234830.5,-144,19,-64
1747908234869.25,218701,1747908234850.281,-144,17,-47
1747908234889.125,218640,1747908234870.156,-141,19,-36
1747908234908.937,218729,1747908234890.031,-159,-7,-38
1747908234928.813,218903,1747908234909.875,-161,-29,-56
1747908234948.688,218975,1747908234929.719,-185,-29,-52
1747908234968.531,218961,1747908234949.594,-189,-26,-53
1747908234988.344,218837,1747908234969.438,-199,-32,-61
1747908235008.219,218606,1747908234989.313,-215,-45,-81
1747908235028.063,218401,1747908235009.125,-201,-48,-81
1747908235047.906,218247,1747908235028.969,-205,-40,-72
1747908235067.75,218066,1747908235048.844,-189,-27,-72
1747908235087.594,217894,1747908235068.688,-177,-1,-62
1747908235107.469,217698,1747908235088.531,-172,12,-50
1747908235127.313,217435,1747908235108.375,-160,14,-68
1747908235147.156,217196,1747908235128.219,-157,7,-72
1747908235167.031,217019,1747908235148.094,-144,7,-78
1747908235186.875,216892,1747908235167.969,-125,-2,-81
1747908235206.75,216911,1747908235187.813,-113,-9,-64
1747908235226.562,217015,1747908235207.656,-103,-10,-64
1747908235246.406,217148,1747908235227.469,-79,-8,-83
1747908235266.281,217205,1747908235247.375,-70,4,-113
1747908235286.156,217333,1747908235267.188,-78,12,-127
1747908235305.969,217540,1747908235287.031,-66,-1,-137
1747908235325.844,217825,1747908235306.937,-57,8,-128
1747908235345.75,218123,1747908235326.781,-49,24,-147
1747908235365.563,218349,1747908235346.656,-28,25,-162
1747908235385.406,218549,1747908235366.438,-27,31,-164
1747908235405.25,218711,1747908235386.312,-6,35,-153
1747908235425.094,218800,1747908235406.187,-9,55,-153
1747908235444.969,218784,1747908235426.0,-7,40,-149
1747908235464.781,218652,1747908235445.875,-24,30,-146
1747908235484.625,218387,1747908235465.719,-41,15,-151
1747908235504.5,218121,1747908235485.562,-66,22,-145
1747908235524.312,218153,1747908235505.406,-80,7,-145
1747908235544.188,218529,1747908235525.25,-82,1,-148
1747908235564.031,219100,1747908235545.125,-82,-4,-142
1747908235583.875,219814,1747908235564.969,-84,-3,-128
1747908235603.719,220258,1747908235584.812,-88,20,-128
1747908235623.562,220303,1747908235604.656,-98,30,-106
1747908235643.375,219974,1747908235624.469,-86,27,-89
1747908235663.25,219410,1747908235644.344,-98,30,-74
1747908235683.094,218856,1747908235664.187,-116,24,-64
1747908235702.9368,218369,1747908235684.0,-109,27,-57
1747908235722.781,218075,1747908235703.875,-134,19,-48
1747908235742.625,217857,1747908235723.719,-165,-8,-49
1747908235762.5,217600,1747908235743.531,-177,-31,-53
1747908235782.375,217256,1747908235763.406,-201,-50,-61
1747908235802.187,216919,1747908235783.281,-223,-74,-84
1747908235822.063,216692,1747908235803.125,-216,-80,-72
1747908235841.906,216569,1747908235822.969,-202,-64,-73
1747908235861.7808,216537,1747908235842.812,-207,-49,-61
1747908235881.656,216527,1747908235862.687,-192,-32,-64
1747908235901.5,216471,1747908235882.5632,-191,-10,-57
1747908235921.344,216394,1747908235902.406,-200,-9,-57
1747908235941.188,216364,1747908235922.281,-188,-9,-64
1747908235961.031,216373,1747908235942.094,-176,-4,-57
1747908235980.875,216491,1747908235962.0,-148,-1,-61
1747908236000.75,216620,1747908235981.781,-135,19,-75
1747908236020.625,216845,1747908236001.656,-104,8,-81
1747908236040.406,217109,1747908236021.656,-81,9,-81
1747908236060.281,217392,1747908236041.344,-86,17,-80
1747908236080.125,217661,1747908236061.188,-72,22,-96
1747908236099.969,217845,1747908236081.031,-66,35,-121
1747908236119.813,218028,1747908236100.906,-57,24,-128
1747908236139.75,218185,1747908236120.75,-45,24,-126
1747908236159.531,218352,1747908236140.625,-36,19,-114
1747908236179.375,218550,1747908236160.438,-31,24,-154
1747908236199.219,218806,1747908236180.281,-18,27,-160
1747908236219.063,218979,1747908236200.125,-12,28,-168
1747908236238.937,218952,1747908236220.0,-6,30,-169
1747908236258.75,218784,1747908236239.875,-7,31,-168
1747908236278.625,218558,1747908236259.656,-16,39,-173
1747908236298.438,218444,1747908236279.562,-34,30,-173
1747908236318.312,218366,1747908236299.375,-56,30,-156
1747908236338.156,218329,1747908236319.187,-58,31,-145
1747908236358.0,218237,1747908236339.094,-64,27,-138
1747908236377.844,218097,1747908236358.938,-57,20,-128
1747908236397.688,217969,1747908236378.781,-70,15,-104
1747908236417.531,217782,1747908236398.594,-81,7,-98
1747908236437.406,217600,1747908236418.469,-105,-1,-100
1747908236457.219,217366,1747908236438.313,-116,-8,-94
1747908236477.063,217156,1747908236458.156,-124,-2,-64
1747908236496.938,216996,1747908236478.0,-125,-9,-48
1747908236516.781,216812,1747908236497.812,-133,-17,-32
1747908236536.594,216646,1747908236517.688,-159,-34,-29
1747908236556.469,216400,1747908236537.563,-176,-36,-28
1747908236576.344,216191,1747908236557.375,-208,-36,-9
1747908236596.187,216090,1747908236577.219,-217,-39,-3
1747908236616.0,215991,1747908236597.094,-231,-40,-17
1747908236635.875,215908,1747908236616.9382,-248,-41,-32
1747908236655.719,215806,1747908236636.781,-245,-33,-40
1747908236675.594,215727,1747908236656.625,-235,-7,-36
1747908236695.406,215692,1747908236676.5,-229,-14,-33
1747908236715.25,215771,1747908236696.344,-197,-16,-32
1747908236735.094,215934,1747908236716.156,-199,-10,-24
1747908236754.969,216151,1747908236736.031,-177,-10,-22
1747908236774.781,216321,1747908236755.906,-177,-8,-17
1747908236794.625,216475,1747908236775.719,-138,-3,-17
1747908236814.469,216598,1747908236795.563,-132,1,-32
1747908236834.344,216707,1747908236815.375,-140,0,-58
1747908236854.156,216769,1747908236835.25,-121,7,-81
1747908236874.0,216775,1747908236855.094,-92,7,-76
1747908236893.844,216758,1747908236874.937,-75,12,-84
1747908236913.687,216709,1747908236894.75,-66,17,-102
1747908236933.531,216677,1747908236914.625,-53,24,-113
1747908236953.344,216621,1747908236934.438,-54,16,-127
1747908236973.25,216609,1747908236954.312,-31,14,-141
1747908236993.062,216800,1747908236974.188,-39,15,-128
1747908237012.906,217376,1747908236993.969,-29,16,-153
1747908237032.75,217821,1747908237013.844,-29,24,-161
1747908237052.563,217805,1747908237033.6558,-49,24,-157
1747908237072.437,217616,1747908237053.469,-73,24,-159
1747908237092.406,217389,1747908237073.344,-95,15,-161
1747908237112.094,217229,1747908237093.188,-100,3,-153
1747908237131.969,217128,1747908237113.063,-97,2,-141
1747908237151.813,217071,1747908237132.844,-104,3,-113
1747908237171.656,217051,1747908237152.719,-112,-5,-80
1747908237191.469,217069,1747908237172.563,-122,-4,-68
1747908237211.313,217090,1747908237192.438,-117,-17,-49
1747908237231.156,217157,1747908237212.219,-136,-13,-28
1747908237251.031,217274,1747908237232.094,-160,-9,-17
1747908237270.812,217431,1747908237251.937,-180,-15,-4
1747908237290.687,217600,1747908237271.75,-177,0,10
1747908237310.5,217742,1747908237291.594,-159,11,15
1747908237330.375,217832,1747908237311.406,-152,8,3
1747908237350.188,217784,1747908237331.281,-168,8,3
1747908237370.0,217734,1747908237351.094,-177,-2,11
1747908237389.875,217710,1747908237370.969,-180,-4,14
1747908237409.719,217729,1747908237390.781,-208,-16,30
1747908237429.563,217826,1747908237410.625,-237,-29,42
1747908237449.375,218003,1747908237430.469,-257,-49,54
1747908237469.219,218187,1747908237450.344,-259,-53,32
1747908237489.031,218408,1747908237470.125,-263,-52,22
1747908237508.875,218619,1747908237489.969,-263,-39,0
1747908237528.688,218833,1747908237509.7808,-237,-28,-2
1747908237548.531,219021,1747908237529.656,-217,-12,-16
1747908237568.406,219168,1747908237549.469,-185,8,-17
1747908237588.25,219256,1747908237569.313,-173,7,-22
1747908237608.063,219364,1747908237589.156,-133,7,-14
1747908237627.906,219365,1747908237609.0,-120,12,-12
1747908237647.75,219388,1747908237628.812,-102,8,-25
1747908237667.594,219408,1747908237648.656,-89,14,-26
1747908237687.437,219509,1747908237668.5,-98,15,-31
1747908237707.25,219636,1747908237688.375,-104,19,-49
1747908237727.125,219754,1747908237708.188,-96,24,-93
1747908237746.969,219877,1747908237728.031,-104,25,-105
1747908237766.812,219953,1747908237747.875,-100,21,-121
1747908237786.656,220013,1747908237767.719,-74,28,-129
1747908237806.5,219973,1747908237787.594,-58,28,-137
1747908237826.375,219801,1747908237807.437,-50,30,-153
1747908237846.219,219547,1747908237827.25,-36,35,-153
1747908237866.062,219299,1747908237847.156,-40,35,-161
1747908237885.906,219038,1747908237866.969,-47,25,-160
1747908237905.75,218810,1747908237886.813,-45,20,-154
1747908237925.594,218608,1747908237906.656,-74,20,-145
1747908237945.437,218491,1747908237926.531,-84,14,-138
1747908237965.281,218471,1747908237946.406,-87,26,-126
1747908237985.156,218435,1747908237966.219,-87,15,-123
1747908238005.0,218361,1747908237986.094,-49,14,-114
1747908238024.844,218140,1747908238005.937,-84,14,-105
1747908238044.719,217867,1747908238025.781,-78,12,-103
1747908238064.531,217728,1747908238045.594,-111,0,-93
1747908238084.469,217704,1747908238065.469,-117,-8,-63
1747908238104.219,217915,1747908238085.344,-125,-8,-32
1747908238124.094,218281,1747908238105.187,-144,-24,-34
1747908238143.937,218585,1747908238125.0,-148,-13,-32
1747908238163.781,219048,1747908238144.875,-161,-8,-33
1747908238183.625,219528,1747908238164.719,-205,-20,-30
1747908238203.5,219866,1747908238184.562,-215,-20,-22
1747908238223.344,220091,1747908238204.406,-241,-25,-17
1747908238243.219,220227,1747908238224.25,-269,-31,-31
1747908238263.031,220299,1747908238244.125,-276,-32,-33
1747908238282.906,220359,1747908238264.0,-266,-17,-37
1747908238302.75,220446,1747908238283.844,-241,9,-39
1747908238322.625,220520,1747908238303.656,-209,14,-32
1747908238342.469,220476,1747908238323.563,-153,14,-26
1747908238362.313,220505,1747908238343.406,-170,15,-32
1747908238382.187,220512,1747908238363.25,-153,6,-50
1747908238402.031,220623,1747908238383.094,-149,10,-58
1747908238421.875,220721,1747908238402.969,-130,7,-64
1747908238441.75,220764,1747908238422.844,-117,2,-82
1747908238461.594,220821,1747908238442.687,-104,-9,-80
1747908238481.469,220872,1747908238462.5,-96,3,-93
1747908238501.312,220970,1747908238482.406,-95,7,-98
1747908238521.156,221089,1747908238502.25,-89,4,-111
1747908238541.0,221230,1747908238522.094,-77,7,-113
1747908238560.875,221382,1747908238541.906,-72,9,-117
1747908238580.719,221509,1747908238561.75,-66,16,-112
1747908238600.563,221801,1747908238581.656,-72,15,-128
1747908238620.438,222160,1747908238601.531,-64,24,-128
1747908238640.312,222394,1747908238621.344,-33,23,-137
1747908238660.156,222636,1747908238641.219,-20,23,-138
1747908238680.0,222909,1747908238661.063,-12,20,-144
1747908238699.844,223197,1747908238680.938,-16,35,-160
1747908238719.688,223397,1747908238700.781,-5,44,-180
1747908238739.562,223501,1747908238720.625,-5,48,-169
1747908238759.406,223497,1747908238740.469,-18,40,-164
1747908238779.281,223503,1747908238760.344,-45,27,-138
1747908238799.094,223648,1747908238780.156,-68,3,-120
1747908238818.969,223896,1747908238800.0,-80,12,-121
1747908238838.75,224121,1747908238819.875,-77,12,-113
1747908238858.625,224310,1747908238839.719,-105,8,-105
1747908238878.469,224492,1747908238859.5632,-109,-4,-89
1747908238898.313,224772,1747908238879.375,-141,-6,-73
1747908238918.125,225112,1747908238899.25,-156,-18,-63
1747908238938.0,225285,1747908238919.094,-149,-23,-49
1747908238957.844,225253,1747908238938.906,-148,-13,-34
1747908238977.688,225175,1747908238958.719,-141,-2,-32
1747908238997.563,225197,1747908238978.563,-153,-13,-29
1747908239017.344,225194,1747908238998.531,-176,-10,-18
1747908239037.219,225111,1747908239018.25,-180,-21,-16
1747908239057.062,224897,1747908239038.156,-204,-29,-42
1747908239076.875,224636,1747908239058.0,-253,-15,-64
1747908239096.75,224465,1747908239077.812,-242,-20,-77
1747908239116.594,224326,1747908239097.656,-241,-13,-62
1747908239136.437,224243,1747908239117.5,-225,-16,-65
1747908239156.281,224153,1747908239137.344,-210,-20,-49
1747908239176.094,223993,1747908239157.219,-217,-18,-61
1747908239195.969,223858,1747908239177.031,-200,-16,-61
1747908239215.844,223789,1747908239196.875,-189,-20,-51
1747908239235.656,223739,1747908239216.75,-166,-10,-49
1747908239255.5,223709,1747908239236.594,-132,-7,-40
1747908239275.375,223736,1747908239256.469,-117,-4,-34
1747908239295.219,223782,1747908239276.281,-109,-4,-51
1747908239315.094,223849,1747908239296.125,-100,17,-64
1747908239334.906,224019,1747908239316.0,-84,11,-64
1747908239354.75,224215,1747908239335.813,-72,16,-77
1747908239374.625,224382,1747908239355.656,-57,19,-100
1747908239394.5,224536,1747908239375.5,-63,20,-112
1747908239414.281,224659,1747908239395.375,-63,17,-125
1747908239434.156,224757,1747908239415.25,-50,20,-120
1747908239454.0,224810,1747908239435.063,-44,15,-138
1747908239473.844,224805,1747908239454.906,-46,12,-161
1747908239493.687,224768,1747908239474.781,-52,23,-148
1747908239513.5,224645,1747908239494.625,-71,8,-145
1747908239533.375,224492,1747908239514.438,-77,7,-157
1747908239553.25,224349,1747908239534.25,-87,7,-160
1747908239573.031,224214,1747908239554.156,-97,7,-157
1747908239592.875,224040,1747908239574.0,-104,3,-150
1747908239612.813,223854,1747908239593.781,-93,4,-138
1747908239632.594,223593,1747908239613.656,-93,0,-129
1747908239652.438,223264,1747908239633.531,-97,7,-118
1747908239672.281,222786,1747908239653.344,-89,7,-112
1747908239692.125,222302,1747908239673.219,-98,14,-103
1747908239712.0,221932,1747908239693.031,-93,21,-80
1747908239731.906,221756,1747908239712.9058,-113,6,-61
1747908239751.656,221889,1747908239732.75,-124,3,-52
1747908239771.5,222195,1747908239752.594,-136,6,-41
1747908239791.344,222382,1747908239772.438,-124,1,-33
1747908239811.188,222375,1747908239792.25,-136,9,-16
1747908239831.031,222288,1747908239812.125,-141,16,-17
1747908239850.875,222331,1747908239831.969,-146,32,-25
1747908239870.75,222479,1747908239851.781,-169,3,-13
1747908239890.625,222537,1747908239871.656,-168,-7,11
1747908239910.406,222488,1747908239891.5,-176,-13,-9
1747908239930.281,222396,1747908239911.344,-196,-20,-17
1747908239950.25,222463,1747908239931.219,-231,-33,-14
1747908239969.969,222652,1747908239951.156,-247,-45,-17
1747908239989.813,222904,1747908239970.906,-247,-49,-18
1747908240009.656,223126,1747908239990.781,-242,-41,-22
1747908240029.531,223317,1747908240010.562,-243,-44,-21
1747908240049.375,223462,1747908240030.437,-228,-31,-18
1747908240069.187,223633,1747908240050.281,-225,-29,-25
1747908240089.063,223721,1747908240070.125,-200,-16,-25
1747908240108.906,223779,1747908240089.969,-177,3,-33
1747908240128.75,223877,1747908240109.812,-146,10,-45
1747908240148.562,223920,1747908240129.625,-122,8,-48
1747908240168.437,224042,1747908240149.5,-111,10,-64
1747908240188.281,224004,1747908240169.344,-112,7,-61
1747908240208.125,223995,1747908240189.188,-103,0,-57
1747908240227.937,223919,1747908240209.031,-101,3,-64
1747908240247.781,223940,1747908240228.875,-93,15,-74
1747908240267.656,224033,1747908240248.719,-93,16,-81
1747908240287.469,224176,1747908240268.531,-109,22,-89
1747908240307.313,224333,1747908240288.375,-97,28,-101
1747908240327.156,224524,1747908240308.25,-76,22,-112
1747908240346.969,224726,1747908240328.125,-60,19,-127
1747908240366.844,224900,1747908240347.906,-42,12,-142
1747908240386.75,224983,1747908240367.75,-36,17,-162
1747908240406.469,225049,1747908240387.687,-36,16,-160
1747908240426.344,225065,1747908240407.437,-31,19,-153
1747908240446.187,224985,1747908240427.313,-40,19,-168
1747908240466.0,224927,1747908240447.094,-49,19,-169
1747908240485.844,224861,1747908240466.938,-52,14,-169
1747908240505.688,224749,1747908240486.7808,-76,14,-148
1747908240525.531,224640,1747908240506.625,-67,15,-145
1747908240545.406,224468,1747908240526.437,-68,-1,-126
1747908240565.219,224242,1747908240546.281,-71,7,-121
1747908240585.063,223990,1747908240566.156,-77,7,-105
1747908240604.938,223838,1747908240585.969,-82,19,-98
1747908240624.8118,223739,1747908240605.844,-105,4,-79
1747908240644.594,223646,1747908240625.719,-111,7,-64
1747908240664.438,223464,1747908240645.563,-96,10,-56
1747908240684.313,223400,1747908240665.344,-116,4,-57
1747908240704.156,223710,1747908240685.219,-165,19,-52
1747908240723.969,224164,1747908240705.062,-172,-25,-39
1747908240743.812,224397,1747908240724.906,-174,-16,-30
1747908240763.656,224335,1747908240744.781,-160,-17,-32
1747908240783.531,224095,1747908240764.563,-169,1,-45
1747908240803.375,223905,1747908240784.437,-177,-8,-31
1747908240823.187,223891,1747908240804.281,-216,-34,-20
1747908240843.062,223894,1747908240824.156,-244,-33,-4
1747908240862.906,223912,1747908240843.969,-257,-33,-9
1747908240882.75,223962,1747908240863.812,-239,-36,-28
1747908240902.594,224052,1747908240883.656,-237,-20,-32
1747908240922.437,224096,1747908240903.531,-234,-12,-25
1747908240942.313,224246,1747908240923.375,-208,-2,-33
1747908240962.125,224403,1747908240943.219,-196,-2,-33
1747908240981.938,224571,1747908240963.062,-186,0,-30
1747908241001.812,224803,1747908240982.844,-163,-4,-45
1747908241021.625,225035,1747908241002.719,-144,-4,-49
1747908241041.469,225264,1747908241022.531,-128,0,-51
1747908241061.313,225496,1747908241042.375,-109,-4,-57
1747908241081.187,225735,1747908241062.25,-97,3,-52
1747908241101.031,225954,1747908241082.094,-97,0,-95
1747908241120.906,226220,1747908241101.938,-100,3,-96
1747908241140.719,226477,1747908241121.813,-89,3,-105
1747908241160.625,226716,1747908241141.656,-74,6,-106
1747908241180.469,226908,1747908241161.531,-61,12,-113
1747908241200.344,227061,1747908241181.375,-64,19,-141
1747908241220.188,227232,1747908241201.25,-52,16,-149
1747908241240.031,227337,1747908241221.125,-39,24,-150
1747908241259.875,227336,1747908241240.969,-16,24,-158
1747908241279.719,227235,1747908241260.781,-10,43,-153
1747908241299.594,227140,1747908241280.656,-8,31,-153
1747908241319.438,227045,1747908241300.531,-9,21,-148
1747908241339.313,226911,1747908241320.312,-13,28,-152
1747908241359.156,226748,1747908241340.219,-32,30,-166
1747908241379.0,226601,1747908241360.063,-49,19,-169
1747908241398.875,226534,1747908241379.938,-60,16,-157
1747908241418.719,226554,1747908241399.781,-68,15,-148
1747908241438.594,226633,1747908241419.625,-66,3,-136
1747908241458.437,226685,1747908241439.531,-79,3,-128
1747908241478.281,226747,1747908241459.375,-85,7,-124
1747908241498.125,226809,1747908241479.188,-98,6,-112
1747908241518.0,226785,1747908241499.062,-112,-5,-101
1747908241537.812,226707,1747908241518.906,-117,1,-82
1747908241557.719,226544,1747908241538.781,-121,4,-61
1747908241577.594,226353,1747908241558.625,-125,8,-41
1747908241597.438,226158,1747908241578.5,-141,7,-24
1747908241617.312,225907,1747908241598.375,-144,-1,-20
1747908241637.219,225714,1747908241618.25,-164,-12,-18
1747908241657.094,225517,1747908241638.125,-194,-12,-17
1747908241676.938,225393,1747908241657.906,-203,-16,-16
1747908241696.719,225270,1747908241677.844,-226,-16,-26
1747908241716.594,225216,1747908241697.687,-225,-16,-29
1747908241736.531,225140,1747908241717.531,-232,-2,-20
1747908241756.344,225092,1747908241737.437,-234,3,-18
1747908241776.187,225062,1747908241757.25,-212,19,-33
1747908241796.031,225029,1747908241777.094,-207,0,-42
1747908241815.906,225045,1747908241796.938,-205,-4,-34
1747908241835.781,225083,1747908241816.813,-193,-2,-25
1747908241855.594,225098,1747908241836.656,-184,-2,-26
