Local: ,2025-05-22 00:00:00+02:00,tz_sec ,7200
Linux Epoch (ms):,1747864800000.0
Timestamp,Seq No.,ECG data
1747907674318.906,0,12354
1747907674319.906,0,12354
1747907674320.906,0,12353
1747907674321.906,0,12356
1747907674322.906,0,12356
1747907674323.75,0,12351
1747907674324.75,0,12356
1747907674325.75,0,12357
1747907674326.75,0,12354
1747907674327.75,0,12355
1747907674328.75,0,12354
1747907674329.75,1,12835
1747907674330.75,1,15124
1747907674331.75,1,17809
1747907674332.75,1,20348
1747907674333.75,1,22871
1747907674334.75,1,25169
1747907674335.75,1,27184
1747907674336.75,1,28906
1747907674337.75,1,30306
1747907674338.75,1,31448
1747907674339.656,1,32323
1747907674340.656,2,32963
1747907674341.656,2,33403
1747907674342.656,2,33694
1747907674343.656,2,33865
1747907674344.656,2,33943
1747907674345.656,2,33956
1747907674346.656,2,33922
1747907674347.656,2,33853
1747907674348.656,2,33771
1747907674349.656,2,33694
1747907674350.656,2,33601
1747907674351.656,3,33513
1747907674352.656,3,33451
1747907674353.656,3,33410
1747907674354.656,3,33375
1747907674355.563,3,33349
1747907674356.562,3,33319
1747907674357.563,3,33302
1747907674358.562,3,33297
1747907674359.5632,3,33293
1747907674360.562,3,33306
1747907674361.563,3,33321
1747907674362.562,4,33331
1747907674363.563,4,33342
1747907674364.562,4,33343
1747907674365.563,4,33335
1747907674366.562,4,33316
1747907674367.563,4,33298
1747907674368.562,4,33288
1747907674369.562,4,33273
1747907674370.563,4,33267
1747907674371.469,4,33254
1747907674372.469,4,33243
1747907674373.469,5,33228
1747907674374.469,5,33221
1747907674375.469,5,33221
1747907674376.469,5,33220
1747907674377.469,5,33225
1747907674378.469,5,33224
1747907674379.469,5,33223
1747907674380.469,5,33215
1747907674381.469,5,33206
1747907674382.469,5,33188
1747907674383.469,5,33176
1747907674384.469,6,33171
1747907674385.469,6,33166
1747907674386.469,6,33173
1747907674387.344,6,33184
1747907674388.344,6,33195
1747907674389.344,6,33192
1747907674390.344,6,33193
1747907674391.344,6,33196
1747907674392.344,6,33183
1747907674393.344,6,33147
1747907674394.344,6,33121
1747907674395.344,7,33104
1747907674396.344,7,33093
1747907674397.344,7,33103
1747907674398.344,7,33105
1747907674399.344,7,33106
1747907674400.344,7,33119
1747907674401.344,7,33138
1747907674402.344,7,33150
1747907674403.188,7,33152
1747907674404.187,7,33147
1747907674405.188,7,33137
1747907674406.187,8,33125
1747907674407.188,8,33111
1747907674408.187,8,33100
1747907674409.188,8,33087
1747907674410.187,8,33081
1747907674411.188,8,33075
1747907674412.187,8,33071
1747907674413.188,8,33070
1747907674414.187,8,33075
1747907674415.188,8,33073
1747907674416.187,8,33069
1747907674417.188,9,33081
1747907674418.187,9,33092
1747907674419.094,9,33101
1747907674420.094,9,33110
1747907674421.094,9,33115
1747907674422.094,9,33129
1747907674423.094,9,33147
1747907674424.094,9,33160
1747907674425.094,9,33170
1747907674426.094,9,33200
1747907674427.094,9,33279
1747907674428.094,10,33399
1747907674429.094,10,33599
1747907674430.094,10,33834
1747907674431.094,10,34144
1747907674432.094,10,34503
1747907674433.094,10,34913
1747907674434.094,10,35346
1747907674435.0,10,35759
1747907674436.0,10,36204
1747907674437.0,10,36637
1747907674438.0,10,37077
1747907674439.0,11,37510
1747907674440.0,11,37908
1747907674441.0,11,38288
1747907674442.0,11,38665
1747907674443.0,11,39049
1747907674444.0,11,39431
1747907674445.0,11,39812
1747907674446.0,11,40185
1747907674447.0,11,40552
1747907674448.0,11,40917
1747907674449.0,11,41283
1747907674450.0,12,41655
1747907674450.906,12,42023
1747907674451.906,12,42403
1747907674452.906,12,42783
1747907674453.906,12,43170
1747907674454.906,12,43523
1747907674455.906,12,43846
1747907674456.906,12,44144
1747907674457.906,12,44449
1747907674458.906,12,44769
1747907674459.906,12,45087
1747907674460.906,13,45420
1747907674461.906,13,45769
1747907674462.9058,13,46141
1747907674463.906,13,46518
1747907674464.906,13,46910
1747907674465.906,13,47315
1747907674466.75,13,47707
1747907674467.75,13,48110
1747907674468.75,13,48507
1747907674469.75,13,48904
1747907674470.75,13,49288
1747907674471.75,14,49652
1747907674472.75,14,49999
1747907674473.75,14,50337
1747907674474.75,14,50672
1747907674475.75,14,50999
1747907674476.75,14,51323
1747907674477.75,14,51632
1747907674478.75,14,51939
1747907674479.75,14,52248
1747907674480.75,14,52557
1747907674481.75,14,52871
1747907674482.656,15,53174
1747907674483.656,15,53485
1747907674484.656,15,53777
1747907674485.656,15,54087
1747907674486.656,15,54386
1747907674487.656,15,54682
1747907674488.656,15,54974
1747907674489.656,15,55259
1747907674490.656,15,55574
1747907674491.656,15,55819
1747907674492.656,15,56074
1747907674493.656,16,56326
1747907674494.656,16,56578
1747907674495.656,16,56795
1747907674496.656,16,57028
1747907674497.656,16,57245
1747907674498.531,16,57468
1747907674499.531,16,57702
1747907674500.531,16,57941
1747907674501.531,16,58194
1747907674502.531,16,58446
1747907674503.531,16,58675
1747907674504.531,17,58891
1747907674505.531,17,59084
1747907674506.531,17,59237
1747907674507.531,17,59362
1747907674508.531,17,59472
1747907674509.531,17,59550
1747907674510.531,17,59624
1747907674511.531,17,59678
1747907674512.531,17,59722
1747907674513.531,17,59775
1747907674514.406,17,59817
1747907674515.406,18,59847
1747907674516.406,18,59875
1747907674517.406,18,59900
1747907674518.406,18,59904
1747907674519.406,18,59922
1747907674520.406,18,59951
1747907674521.406,18,59957
1747907674522.406,18,59949
1747907674523.406,18,59964
1747907674524.406,18,59966
1747907674525.4058,18,59971
1747907674526.406,19,59984
1747907674527.406,19,59976
1747907674528.406,19,59986
1747907674529.406,19,59977
1747907674530.344,19,59995
1747907674531.344,19,59973
1747907674532.344,19,59991
1747907674533.344,19,59984
1747907674534.344,19,59988
1747907674535.344,19,59992
1747907674536.344,19,59984
1747907674537.344,20,59988
1747907674538.344,20,59980
1747907674539.344,20,59990
1747907674540.344,20,59979
1747907674541.344,20,59981
1747907674542.344,20,59987
1747907674543.344,20,59986
1747907674544.344,20,59978
1747907674545.344,20,59977
1747907674546.187,20,59986
1747907674547.188,20,59970
1747907674548.187,21,59988
1747907674549.188,21,59984
1747907674550.187,21,59980
1747907674551.188,21,59976
1747907674552.187,21,59981
1747907674553.188,21,59975
1747907674554.187,21,59991
1747907674555.188,21,59990
1747907674556.187,21,59993
1747907674557.188,21,59997
1747907674558.187,21,59976
1747907674559.188,22,59988
1747907674560.187,22,59974
1747907674561.188,22,59974
1747907674562.063,22,59977
1747907674563.062,22,60002
1747907674564.063,22,59991
1747907674565.062,22,59992
1747907674566.063,22,59993
1747907674567.062,22,59989
1747907674568.063,22,59983
1747907674569.062,22,59998
1747907674570.0632,23,59985
1747907674571.062,23,59998
1747907674572.063,23,59981
1747907674573.062,23,59984
1747907674574.063,23,59983
1747907674575.063,23,59989
1747907674576.062,23,59986
1747907674577.063,23,60000
1747907674577.969,23,59973
1747907674578.969,23,59997
1747907674579.969,23,59984
1747907674580.969,24,59990
1747907674581.969,24,59988
1747907674582.969,24,59980
1747907674583.9692,24,59998
1747907674584.969,24,59977
1747907674585.969,24,59988
1747907674586.969,24,59990
1747907674587.969,24,59972
1747907674588.969,24,59991
1747907674589.969,24,59985
1747907674590.969,24,59984
1747907674591.969,25,59992
1747907674592.969,25,59982
1747907674593.9382,25,59990
1747907674594.937,25,59977
1747907674595.938,25,59985
1747907674596.937,25,59982
1747907674597.938,25,59985
1747907674598.937,25,59980
1747907674599.938,25,59998
1747907674600.937,25,59981
1747907674601.938,25,59995
1747907674602.937,26,59985
1747907674603.937,26,59984
1747907674604.938,26,59989
1747907674605.937,26,59986
1747907674606.938,26,59980
1747907674607.937,26,59978
1747907674608.938,26,59987
1747907674609.781,26,59977
1747907674610.781,26,59982
1747907674611.7808,26,59986
1747907674612.781,26,59971
1747907674613.781,27,59978
1747907674614.781,27,59991
1747907674615.781,27,59986
1747907674616.781,27,59986
1747907674617.781,27,59982
1747907674618.781,27,59996
1747907674619.781,27,59991
1747907674620.781,27,59978
1747907674621.781,27,59986
1747907674622.781,27,59983
1747907674623.781,27,59988
1747907674624.781,28,59974
1747907674625.625,28,59989
1747907674626.625,28,59989
1747907674627.625,28,59985
1747907674628.625,28,59986
1747907674629.625,28,59985
1747907674630.625,28,59979
1747907674631.625,28,59997
1747907674632.625,28,59995
1747907674633.625,28,59998
1747907674634.625,28,59983
1747907674635.625,29,59994
1747907674636.625,29,59995
1747907674637.625,29,59985
1747907674638.625,29,59968
1747907674639.625,29,59986
1747907674640.625,29,59968
1747907674641.5,29,59980
1747907674642.5,29,59988
1747907674643.5,29,59978
1747907674644.5,29,59979
1747907674645.5,29,59983
1747907674646.5,30,59983
1747907674647.5,30,59975
1747907674648.5,30,59984
1747907674649.5,30,59982
1747907674650.5,30,59989
1747907674651.5,30,59981
1747907674652.5,30,59979
1747907674653.5,30,59988
1747907674654.5,30,59977
1747907674655.5,30,59986
1747907674656.5,30,59993
1747907674657.406,31,59992
1747907674658.406,31,59974
1747907674659.406,31,59970
1747907674660.406,31,59994
1747907674661.406,31,59982
1747907674662.406,31,59978
1747907674663.406,31,59978
1747907674664.406,31,59994
1747907674665.406,31,59982
1747907674666.406,31,59981
1747907674667.406,31,59976
1747907674668.406,32,59985
1747907674669.406,32,59975
1747907674670.406,32,59987
1747907674671.406,32,59974
1747907674672.406,32,59987
1747907674673.313,32,59980
1747907674674.312,32,59979
1747907674675.313,32,59980
1747907674676.312,32,59981
1747907674677.313,32,59980
1747907674678.313,32,59981
1747907674679.312,33,59984
1747907674680.313,33,59986
1747907674681.312,33,59992
1747907674682.313,33,59975
1747907674683.312,33,59985
1747907674684.313,33,59974
1747907674685.312,33,59982
1747907674686.313,33,59985
1747907674687.3118,33,59994
1747907674688.313,33,59984
1747907674689.188,33,59990
1747907674690.187,34,60002
1747907674691.188,34,59984
1747907674692.187,34,59987
1747907674693.188,34,59980
1747907674694.187,34,59982
1747907674695.188,34,59983
1747907674696.187,34,59977
1747907674697.188,34,59994
1747907674698.187,34,59973
1747907674699.188,34,59985
1747907674700.187,34,59987
1747907674701.188,35,59984
1747907674702.187,35,59974
1747907674703.188,35,59982
1747907674704.187,35,59978
1747907674705.031,35,59983
1747907674706.031,35,59978
1747907674707.031,35,59993
1747907674708.031,35,59984
1747907674709.031,35,59989
1747907674710.031,35,59995
1747907674711.031,35,59990
1747907674712.031,36,59973
1747907674713.031,36,59993
1747907674714.031,36,59986
1747907674715.031,36,59977
1747907674716.031,36,59976
1747907674717.031,36,59986
1747907674718.031,36,59984
1747907674719.031,36,59976
1747907674720.031,36,59980
1747907674720.906,36,59988
1747907674721.906,36,59974
1747907674722.906,37,59974
1747907674723.906,37,59988
1747907674724.906,37,59985
1747907674725.906,37,59979
1747907674726.906,37,59988
1747907674727.906,37,59981
1747907674728.906,37,59979
1747907674729.906,37,59978
1747907674730.906,37,59989
1747907674731.906,37,59988
1747907674732.906,37,59983
1747907674733.906,38,59977
1747907674734.906,38,59992
1747907674735.906,38,59969
1747907674736.844,38,59987
1747907674737.844,38,59973
1747907674738.844,38,59995
1747907674739.844,38,59989
1747907674740.844,38,59983
1747907674741.844,38,59992
1747907674742.844,38,59965
1747907674743.844,38,59980
1747907674744.844,39,59989
1747907674745.844,39,59972
1747907674746.844,39,59988
1747907674747.844,39,59984
1747907674748.844,39,59982
1747907674749.844,39,59969
1747907674750.844,39,59977
1747907674751.844,39,59982
1747907674752.719,39,59979
1747907674753.719,39,59984
1747907674754.719,39,59977
1747907674755.719,40,59980
1747907674756.719,40,59988
1747907674757.719,40,59985
1747907674758.719,40,59987
1747907674759.719,40,59976
1747907674760.719,40,59981
1747907674761.719,40,59992
1747907674762.719,40,59975
1747907674763.719,40,59971
1747907674764.719,40,59986
1747907674765.719,40,59978
1747907674766.719,41,59989
1747907674767.719,41,59973
1747907674768.625,41,59973
1747907674769.625,41,59975
1747907674770.625,41,59981
1747907674771.625,41,59994
1747907674772.625,41,59985
1747907674773.625,41,59980
1747907674774.625,41,59974
1747907674775.625,41,59986
1747907674776.625,41,59986
1747907674777.625,42,59998
1747907674778.625,42,59991
1747907674779.625,42,59988
1747907674780.625,42,59983
1747907674781.625,42,59991
1747907674782.625,42,59976
1747907674783.625,42,59973
1747907674784.469,42,59978
1747907674785.469,42,59978
1747907674786.469,42,59983
1747907674787.469,42,59983
1747907674788.469,43,59992
1747907674789.469,43,59986
1747907674790.469,43,59985
1747907674791.469,43,59981
1747907674792.469,43,59996
1747907674793.469,43,59985
1747907674794.4692,43,59983
1747907674795.469,43,59987
1747907674796.469,43,59984
1747907674797.469,43,59984
1747907674798.469,43,59981
1747907674799.469,44,59991
1747907674800.344,44,59988
1747907674801.344,44,59978
1747907674802.344,44,60000
1747907674803.344,44,59980
1747907674804.344,44,59979
1747907674805.344,44,59979
1747907674806.344,44,59976
1747907674807.344,44,59978
1747907674808.344,44,59986
1747907674809.344,44,59972
1747907674810.344,45,59977
1747907674811.344,45,59996
1747907674812.344,45,59979
1747907674813.344,45,59984
1747907674814.344,45,59982
1747907674815.344,45,59977
1747907674816.25,45,59988
1747907674817.25,45,59983
1747907674818.25,45,59977
1747907674819.25,45,59981
1747907674820.25,45,59986
1747907674821.25,46,59988
1747907674822.25,46,59979
1747907674823.25,46,59984
1747907674824.25,46,59981
1747907674825.25,46,59991
1747907674826.25,46,59983
1747907674827.25,46,59980
1747907674828.25,46,59973
1747907674829.25,46,59974
1747907674830.25,46,59976
1747907674831.25,46,59982
1747907674832.187,47,59981
1747907674833.188,47,59974
1747907674834.187,47,59987
1747907674835.188,47,59990
1747907674836.1868,47,59988
1747907674837.188,47,59982
1747907674838.187,47,59996
1747907674839.188,47,59989
1747907674840.187,47,59998
1747907674841.188,47,59992
1747907674842.187,47,59979
1747907674843.188,48,59984
1747907674844.187,48,59989
1747907674845.188,48,59990
1747907674846.187,48,59980
1747907674847.188,48,59974
1747907674848.063,48,59991
1747907674849.062,48,59974
1747907674850.063,48,59991
1747907674851.062,48,59996
1747907674852.063,48,59982
1747907674853.062,48,59992
1747907674854.063,49,59992
1747907674855.062,49,59984
1747907674856.063,49,59989
1747907674857.062,49,59983
1747907674858.063,49,59985
1747907674859.062,49,59988
1747907674860.063,49,59977
1747907674861.063,49,59989
1747907674862.062,49,59990
1747907674863.063,49,59992
1747907674863.906,49,59987
1747907674864.906,50,59988
1747907674865.906,50,59984
1747907674866.906,50,59982
1747907674867.906,50,59968
1747907674868.906,50,59985
1747907674869.906,50,59991
1747907674870.906,50,59978
1747907674871.906,50,59978
1747907674872.906,50,59996
1747907674873.906,50,59989
1747907674874.906,50,59981
1747907674875.906,51,59990
1747907674876.906,51,59984
1747907674877.906,51,59990
1747907674878.906,51,59976
1747907674879.781,51,59984
1747907674880.781,51,59986
1747907674881.781,51,59994
1747907674882.781,51,59982
1747907674883.781,51,59995
1747907674884.7808,51,59990
1747907674885.781,51,59989
1747907674886.781,52,59989
1747907674887.781,52,59986
1747907674888.781,52,59973
1747907674889.781,52,59976
1747907674890.781,52,60001
1747907674891.781,52,60001
1747907674892.781,52,59981
1747907674893.781,52,59986
1747907674894.781,52,59975
1747907674895.688,52,59993
1747907674896.687,52,59983
1747907674897.688,53,59991
1747907674898.6868,53,59993
1747907674899.688,53,59988
1747907674900.687,53,59984
1747907674901.688,53,59988
1747907674902.687,53,59983
1747907674903.688,53,59988
1747907674904.687,53,59982
1747907674905.688,53,59981
1747907674906.687,53,59995
1747907674907.688,53,59986
1747907674908.687,54,59984
1747907674909.688,54,59988
1747907674910.687,54,59981
1747907674911.562,54,59977
1747907674912.563,54,59988
1747907674913.562,54,60003
1747907674914.563,54,59992
1747907674915.562,54,59988
1747907674916.563,54,59994
1747907674917.562,54,59990
1747907674918.563,54,59996
1747907674919.562,55,59974
1747907674920.563,55,59995
1747907674921.562,55,59981
1747907674922.563,55,59977
1747907674923.563,55,59994
1747907674924.562,55,59995
1747907674925.563,55,59989
1747907674926.562,55,59990
1747907674927.469,55,59987
1747907674928.469,55,59993
1747907674929.469,55,59990
1747907674930.469,56,59988
1747907674931.469,56,60000
1747907674932.469,56,59979
1747907674933.469,56,59997
1747907674934.469,56,59986
1747907674935.469,56,59987
1747907674936.469,56,60002
1747907674937.469,56,59991
1747907674938.469,56,59985
1747907674939.469,56,59995
1747907674940.469,56,59982
1747907674941.469,57,59989
1747907674942.469,57,59980
1747907674943.312,57,59990
1747907674944.313,57,59995
1747907674945.312,57,59978
1747907674946.312,57,59986
1747907674947.313,57,59975
1747907674948.312,57,59982
1747907674949.313,57,59979
1747907674950.312,57,59978
1747907674951.313,57,59979
1747907674952.312,58,59995
1747907674953.3132,58,59979
1747907674954.312,58,59977
1747907674955.313,58,59988
1747907674956.312,58,59983
1747907674957.313,58,59980
1747907674958.312,58,59986
1747907674959.187,58,59980
1747907674960.188,58,59987
1747907674961.1868,58,59991
1747907674962.188,58,59991
1747907674963.187,59,59982
1747907674964.188,59,59981
1747907674965.187,59,59990
1747907674966.188,59,59995
1747907674967.187,59,59987
1747907674968.188,59,59978
1747907674969.187,59,59984
1747907674970.188,59,59982
1747907674971.187,59,59985
1747907674972.188,59,59974
1747907674973.187,59,59978
1747907674974.188,60,59989
1747907674975.094,60,59982
1747907674976.094,60,59985
1747907674977.094,60,59983
1747907674978.094,60,59986
1747907674979.094,60,59982
1747907674980.094,60,59972
1747907674981.094,60,59985
1747907674982.094,60,59980
1747907674983.094,60,59991
1747907674984.094,60,59988
1747907674985.094,61,59987
1747907674986.094,61,59985
1747907674987.094,61,59981
1747907674988.094,61,59977
1747907674989.094,61,59989
1747907674990.094,61,59984
1747907674991.0,61,59990
1747907674992.0,61,59984
1747907674993.0,61,59977
1747907674994.0,61,59980
1747907674995.0,61,59981
1747907674996.0,62,59984
1747907674997.0,62,59984
1747907674998.0,62,59984
1747907674999.0,62,59989
1747907675000.0,62,59992
1747907675001.0,62,59992
1747907675002.0,62,59983
1747907675003.0,62,59992
1747907675004.0,62,59985
1747907675005.0,62,59995
1747907675006.0,62,59982
1747907675006.875,63,59988
1747907675007.875,63,59992
1747907675008.875,63,59987
1747907675009.875,63,59993
1747907675010.875,63,59982
1747907675011.875,63,59996
1747907675012.875,63,59989
1747907675013.875,63,59990
1747907675014.875,63,59980
1747907675015.875,63,59983
1747907675016.875,63,59982
1747907675017.875,64,59978
1747907675018.875,64,59982
1747907675019.875,64,59984
1747907675020.875,64,59983
1747907675021.875,64,59982
1747907675022.75,64,59977
1747907675023.75,64,59980
1747907675024.75,64,59984
1747907675025.75,64,59982
1747907675026.75,64,59984
1747907675027.75,64,59980
1747907675028.75,65,59989
1747907675029.75,65,59990
1747907675030.75,65,59991
1747907675031.75,65,59984
1747907675032.75,65,60000
1747907675033.75,65,59988
1747907675034.75,65,59994
1747907675035.75,65,59982
1747907675036.75,65,59984
1747907675037.75,65,59994
1747907675038.594,65,59985
1747907675039.594,66,59983
1747907675040.594,66,59980
1747907675041.594,66,59980
1747907675042.594,66,59991
1747907675043.594,66,59992
1747907675044.594,66,59986
1747907675045.594,66,59987
1747907675046.594,66,59988
1747907675047.594,66,59984
1747907675048.594,66,59998
1747907675049.594,66,59997
1747907675050.594,67,59978
1747907675051.594,67,59985
1747907675052.594,67,59979
1747907675053.594,67,59993
1747907675054.5,67,59978
1747907675055.5,67,59975
1747907675056.5,67,59983
1747907675057.5,67,59982
1747907675058.5,67,59987
1747907675059.5,67,59995
1747907675060.5,67,59982
1747907675061.5,68,59994
1747907675062.5,68,59997
1747907675063.5,68,59989
1747907675064.5,68,59985
1747907675065.5,68,59981
1747907675066.5,68,59988
1747907675067.5,68,59990
1747907675068.5,68,59988
1747907675069.5,68,59998
1747907675070.375,68,59999
1747907675071.375,68,59984
1747907675072.375,69,59991
1747907675073.375,69,59985
1747907675074.375,69,59987
1747907675075.375,69,59993
1747907675076.375,69,59990
1747907675077.375,69,59996
1747907675078.375,69,59994
1747907675079.375,69,59989
1747907675080.375,69,59994
1747907675081.375,69,59986
1747907675082.375,69,59981
1747907675083.375,70,59980
1747907675084.375,70,59992
1747907675085.375,70,59981
1747907675086.25,70,59980
1747907675087.25,70,59991
1747907675088.25,70,59980
1747907675089.25,70,59978
1747907675090.25,70,59982
1747907675091.25,70,59993
1747907675092.25,70,59968
1747907675093.25,70,59986
1747907675094.25,71,59970
1747907675095.25,71,59980
1747907675096.25,71,59968
1747907675097.25,71,59970
1747907675098.25,71,59975
1747907675099.25,71,59960
1747907675100.25,71,59961
1747907675101.25,71,59949
1747907675102.125,71,59957
1747907675103.125,71,59953
1747907675104.125,71,59953
1747907675105.125,72,59949
1747907675106.125,72,59952
1747907675107.125,72,59953
1747907675108.125,72,59944
1747907675109.125,72,59938
1747907675110.125,72,59941
1747907675111.125,72,59952
1747907675112.125,72,59944
1747907675113.125,72,59940
1747907675114.125,72,59938
1747907675115.125,72,59932
1747907675116.125,73,59925
1747907675117.125,73,59941
1747907675118.0,73,59931
1747907675119.0,73,59927
1747907675120.0,73,59933
1747907675121.0,73,59920
1747907675122.0,73,59930
1747907675123.0,73,59930
1747907675124.0,73,59909
1747907675125.0,73,59921
1747907675126.0,73,59918
1747907675127.0,74,59909
1747907675128.0,74,59911
1747907675129.0,74,59904
1747907675130.0,74,59902
1747907675131.0,74,59901
1747907675132.0,74,59883
1747907675133.0,74,59894
1747907675133.875,74,59887
1747907675134.875,74,59876
1747907675135.875,74,59881
1747907675136.875,74,59875
1747907675137.875,75,59878
1747907675138.875,75,59878
1747907675139.875,75,59867
1747907675140.875,75,59856
1747907675141.875,75,59851
1747907675142.875,75,59858
1747907675143.875,75,59848
1747907675144.875,75,59858
1747907675145.875,75,59851
1747907675146.875,75,59831
1747907675147.875,75,59830
1747907675148.875,76,59827
1747907675149.781,76,59815
1747907675150.781,76,59814
1747907675151.781,76,59814
1747907675152.781,76,59807
1747907675153.781,76,59805
1747907675154.781,76,59805
1747907675155.781,76,59794
1747907675156.781,76,59787
1747907675157.781,76,59777
1747907675158.781,76,59784
1747907675159.781,77,59765
1747907675160.781,77,59760
1747907675161.781,77,59752
1747907675162.781,77,59743
1747907675163.781,77,59735
1747907675164.781,77,59715
1747907675165.687,77,59704
1747907675166.688,77,59693
1747907675167.687,77,59674
1747907675168.688,77,59675
1747907675169.687,77,59671
1747907675170.688,78,59683
1747907675171.6868,78,59680
1747907675172.688,78,59679
1747907675173.687,78,59693
1747907675174.688,78,59683
1747907675175.687,78,59674
1747907675176.688,78,59672
1747907675177.687,78,59654
1747907675178.688,78,59637
1747907675179.688,78,59617
1747907675180.687,78,59590
1747907675181.563,79,59566
1747907675182.562,79,59537
1747907675183.563,79,59517
1747907675184.562,79,59506
1747907675185.563,79,59499
1747907675186.562,79,59486
1747907675187.563,79,59472
1747907675188.562,79,59463
1747907675189.563,79,59442
1747907675190.562,79,59417
1747907675191.562,79,59397
1747907675192.563,80,59367
1747907675193.562,80,59337
1747907675194.563,80,59316
1747907675195.5618,80,59304
1747907675196.563,80,59294
1747907675197.375,80,59274
1747907675198.375,80,59259
1747907675199.375,80,59243
1747907675200.375,80,59231
1747907675201.375,80,59214
1747907675202.375,80,59201
1747907675203.375,81,59182
1747907675204.375,81,59150
1747907675205.375,81,59116
1747907675206.375,81,59078
1747907675207.375,81,59048
1747907675208.375,81,59013
1747907675209.375,81,58980
1747907675210.375,81,58940
1747907675211.375,81,58888
1747907675212.375,81,58818
1747907675213.281,81,58741
1747907675214.281,82,58659
1747907675215.281,82,58601
1747907675216.281,82,58570
1747907675217.281,82,58566
1747907675218.281,82,58568
1747907675219.281,82,58580
1747907675220.281,82,58595
1747907675221.281,82,58610
1747907675222.281,82,58613
1747907675223.281,82,58606
1747907675224.281,82,58586
1747907675225.281,83,58548
1747907675226.281,83,58490
1747907675227.281,83,58418
1747907675228.281,83,58348
1747907675229.156,83,58280
1747907675230.156,83,58228
1747907675231.156,83,58193
1747907675232.156,83,58174
1747907675233.156,83,58176
1747907675234.156,83,58162
1747907675235.156,83,58136
1747907675236.156,84,58101
1747907675237.156,84,58063
1747907675238.156,84,58020
1747907675239.156,84,57971
1747907675240.156,84,57920
1747907675241.156,84,57882
1747907675242.156,84,57845
1747907675243.156,84,57796
1747907675244.1558,84,57746
1747907675245.031,84,57684
1747907675246.031,84,57627
1747907675247.031,85,57576
1747907675248.031,85,57534
1747907675249.031,85,57498
1747907675250.031,85,57461
1747907675251.031,85,57419
1747907675252.031,85,57370
1747907675253.031,85,57325
1747907675254.031,85,57294
1747907675255.031,85,57258
1747907675256.031,85,57222
1747907675257.031,85,57182
1747907675258.031,86,57143
1747907675259.031,86,57106
1747907675260.031,86,57075
1747907675260.938,86,57042
1747907675261.937,86,57000
1747907675262.938,86,56965
1747907675263.937,86,56928
1747907675264.937,86,56899
1747907675265.938,86,56867
1747907675266.937,86,56835
1747907675267.938,86,56791
1747907675268.937,87,56748
1747907675269.938,87,56721
1747907675270.937,87,56700
1747907675271.938,87,56674
1747907675272.937,87,56634
1747907675273.938,87,56581
1747907675274.937,87,56527
1747907675275.938,87,56482
1747907675276.781,87,56448
1747907675277.781,87,56420
1747907675278.781,87,56396
1747907675279.781,88,56391
1747907675280.781,88,56376
1747907675281.781,88,56345
1747907675282.781,88,56309
1747907675283.781,88,56265
1747907675284.781,88,56226
1747907675285.781,88,56183
1747907675286.781,88,56121
1747907675287.781,88,56052
1747907675288.781,88,55962
1747907675289.781,88,55870
1747907675290.781,89,55798
1747907675291.781,89,55759
1747907675292.687,89,55731
1747907675293.688,89,55716
1747907675294.687,89,55718
1747907675295.688,89,55734
1747907675296.6868,89,55751
1747907675297.688,89,55761
1747907675298.687,89,55759
1747907675299.688,89,55754
1747907675300.687,89,55743
1747907675301.688,90,55710
1747907675302.687,90,55668
1747907675303.688,90,55614
1747907675304.688,90,55543
1747907675305.687,90,55474
1747907675306.688,90,55410
1747907675307.687,90,55357
1747907675308.563,90,55307
1747907675309.562,90,55277
1747907675310.563,90,55253
1747907675311.562,90,55236
1747907675312.563,91,55214
1747907675313.562,91,55194
1747907675314.563,91,55164
1747907675315.562,91,55139
1747907675316.562,91,55115
1747907675317.563,91,55100
1747907675318.562,91,55078
1747907675319.563,91,55053
1747907675320.5618,91,55014
1747907675321.563,91,54973
1747907675322.562,91,54922
1747907675323.563,92,54868
1747907675324.469,92,54798
1747907675325.469,92,54731
1747907675326.469,92,54680
1747907675327.469,92,54642
1747907675328.469,92,54618
1747907675329.469,92,54612
1747907675330.469,92,54619
1747907675331.469,92,54635
1747907675332.469,92,54661
1747907675333.469,92,54684
1747907675334.469,93,54696
1747907675335.469,93,54671
1747907675336.469,93,54630
1747907675337.469,93,54596
1747907675338.469,93,54566
1747907675339.469,93,54560
1747907675340.344,93,54560
1747907675341.3442,93,54554
1747907675342.344,93,54534
1747907675343.344,93,54485
1747907675344.344,93,54417
1747907675345.344,94,54342
1747907675346.344,94,54268
1747907675347.344,94,54213
1747907675348.344,94,54170
1747907675349.344,94,54136
1747907675350.344,94,54116
1747907675351.344,94,54086
1747907675352.344,94,54049
1747907675353.344,94,54004
1747907675354.344,94,53974
1747907675355.344,94,53951
1747907675356.188,95,53933
1747907675357.187,95,53919
1747907675358.188,95,53901
1747907675359.1868,95,53892
1747907675360.188,95,53889
1747907675361.187,95,53887
1747907675362.188,95,53876
1747907675363.187,95,53850
1747907675364.188,95,53793
1747907675365.187,95,53710
1747907675366.188,95,53601
1747907675367.188,96,53511
1747907675368.187,96,53427
1747907675369.188,96,53370
1747907675370.187,96,53337
1747907675371.188,96,53317
1747907675372.062,96,53314
1747907675373.063,96,53321
1747907675374.062,96,53333
1747907675375.063,96,53330
1747907675376.062,96,53311
1747907675377.063,96,53277
1747907675378.062,97,53245
1747907675379.062,97,53222
1747907675380.063,97,53196
1747907675381.062,97,53180
1747907675382.063,97,53157
1747907675383.0618,97,53115
1747907675384.063,97,53055
1747907675385.062,97,52995
1747907675386.063,97,52926
1747907675387.062,97,52858
1747907675387.969,97,52785
1747907675388.969,98,52711
1747907675389.969,98,52667
1747907675390.969,98,52636
1747907675391.969,98,52615
1747907675392.969,98,52601
1747907675393.969,98,52577
1747907675394.969,98,52536
1747907675395.969,98,52472
1747907675396.969,98,52405
1747907675397.969,98,52329
1747907675398.969,98,52256
1747907675399.969,99,52158
1747907675400.969,99,52060
1747907675401.969,99,51976
1747907675402.969,99,51913
1747907675403.8442,99,51858
1747907675404.844,99,51811
1747907675405.844,99,51767
1747907675406.844,99,51728
1747907675407.844,99,51699
1747907675408.844,99,51680
1747907675409.844,99,51664
1747907675410.844,100,51623
1747907675411.844,100,51587
1747907675412.844,100,51554
1747907675413.844,100,51518
1747907675414.844,100,51468
1747907675415.844,100,51420
1747907675416.844,100,51369
1747907675417.844,100,51317
1747907675418.844,100,51256
1747907675419.75,100,51187
1747907675420.75,100,51114
1747907675421.75,101,51040
1747907675422.75,101,50975
1747907675423.75,101,50926
1747907675424.75,101,50887
1747907675425.75,101,50850
1747907675426.75,101,50805
1747907675427.75,101,50753
1747907675428.75,101,50693
1747907675429.75,101,50621
1747907675430.75,101,50544
1747907675431.75,101,50473
1747907675432.75,102,50435
1747907675433.75,102,50446
1747907675434.75,102,50483
1747907675435.563,102,50536
1747907675436.562,102,50572
1747907675437.563,102,50579
1747907675438.562,102,50572
1747907675439.563,102,50548
1747907675440.562,102,50513
1747907675441.562,102,50462
1747907675442.563,102,50377
1747907675443.562,103,50272
1747907675444.563,103,50201
1747907675445.5618,103,50171
1747907675446.563,103,50171
1747907675447.562,103,50171
1747907675448.563,103,50156
1747907675449.562,103,50143
1747907675450.563,103,50146
1747907675451.469,103,50159
1747907675452.469,103,50156
1747907675453.469,103,50129
1747907675454.469,104,50108
1747907675455.469,104,50088
1747907675456.469,104,50070
1747907675457.469,104,50060
1747907675458.469,104,50039
1747907675459.469,104,50000
1747907675460.469,104,49930
1747907675461.469,104,49867
1747907675462.469,104,49799
1747907675463.469,104,49710
1747907675464.469,104,49625
1747907675465.469,105,49554
1747907675466.469,105,49508
1747907675467.344,105,49483
1747907675468.344,105,49436
1747907675469.344,105,49380
1747907675470.344,105,49341
1747907675471.344,105,49345
1747907675472.344,105,49369
1747907675473.344,105,49386
1747907675474.344,105,49398
1747907675475.344,105,49402
1747907675476.344,106,49386
1747907675477.344,106,49349
1747907675478.344,106,49289
1747907675479.344,106,49231
1747907675480.344,106,49163
1747907675481.344,106,49098
1747907675482.344,106,49048
1747907675483.219,106,49007
1747907675484.219,106,48976
1747907675485.219,106,48946
1747907675486.219,106,48928
1747907675487.219,107,48910
1747907675488.219,107,48874
1747907675489.219,107,48848
1747907675490.2192,107,48796
1747907675491.219,107,48723
1747907675492.219,107,48647
1747907675493.219,107,48588
1747907675494.219,107,48528
1747907675495.219,107,48468
1747907675496.219,107,48426
1747907675497.219,107,48401
1747907675498.219,108,48375
1747907675499.094,108,48337
1747907675500.094,108,48287
1747907675501.094,108,48232
1747907675502.094,108,48197
1747907675503.094,108,48160
1747907675504.094,108,48138
1747907675505.094,108,48107
1747907675506.094,108,48068
1747907675507.094,108,48028
1747907675508.094,108,47992
1747907675509.094,109,47973
1747907675510.094,109,47957
1747907675511.094,109,47938
1747907675512.094,109,47916
1747907675513.094,109,47888
1747907675514.094,109,47843
1747907675514.937,109,47784
1747907675515.938,109,47722
1747907675516.937,109,47671
1747907675517.938,109,47639
1747907675518.937,109,47639
1747907675519.938,110,47645
1747907675520.937,110,47637
1747907675521.938,110,47630
1747907675522.937,110,47634
1747907675523.938,110,47631
1747907675524.937,110,47609
1747907675525.938,110,47576
1747907675526.937,110,47530
1747907675527.938,110,47481
1747907675528.937,110,47419
1747907675529.938,110,47347
1747907675530.844,111,47272
1747907675531.844,111,47206
1747907675532.844,111,47159
1747907675533.844,111,47116
1747907675534.844,111,47068
1747907675535.844,111,47031
1747907675536.844,111,46999
1747907675537.844,111,46972
1747907675538.844,111,46924
1747907675539.844,111,46880
1747907675540.844,111,46819
1747907675541.844,112,46754
1747907675542.844,112,46695
1747907675543.844,112,46636
1747907675544.844,112,46600
1747907675545.844,112,46566
1747907675546.75,112,46537
1747907675547.75,112,46528
1747907675548.75,112,46532
1747907675549.75,112,46526
1747907675550.75,112,46506
1747907675551.75,112,46462
1747907675552.75,113,46414
1747907675553.75,113,46370
1747907675554.75,113,46330
1747907675555.75,113,46319
1747907675556.75,113,46310
1747907675557.75,113,46283
1747907675558.75,113,46228
1747907675559.75,113,46175
1747907675560.75,113,46151
1747907675561.75,113,46143
1747907675562.625,113,46139
1747907675563.625,114,46139
1747907675564.625,114,46132
1747907675565.625,114,46140
1747907675566.625,114,46156
1747907675567.625,114,46175
1747907675568.625,114,46213
1747907675569.625,114,46239
1747907675570.625,114,46255
1747907675571.625,114,46265
1747907675572.625,114,46273
1747907675573.625,114,46295
1747907675574.625,115,46326
1747907675575.625,115,46365
1747907675576.625,115,46407
1747907675577.625,115,46451
1747907675578.5,115,46478
1747907675579.5,115,46501
1747907675580.5,115,46504
1747907675581.5,115,46513
1747907675582.5,115,46534
1747907675583.5,115,46543
1747907675584.5,115,46528
1747907675585.5,116,46492
1747907675586.5,116,46433
1747907675587.5,116,46364
1747907675588.5,116,46281
1747907675589.5,116,46167
1747907675590.5,116,46062
1747907675591.5,116,45957
1747907675592.5,116,45857
1747907675593.5,116,45764
1747907675594.375,116,45665
1747907675595.375,116,45570
1747907675596.375,117,45481
1747907675597.375,117,45389
1747907675598.375,117,45298
1747907675599.375,117,45213
1747907675600.375,117,45145
1747907675601.375,117,45083
1747907675602.375,117,45021
1747907675603.375,117,44956
1747907675604.375,117,44881
1747907675605.375,117,44793
1747907675606.375,117,44688
1747907675607.375,118,44606
1747907675608.375,118,44521
1747907675609.375,118,44442
1747907675610.25,118,44370
1747907675611.25,118,44318
1747907675612.25,118,44295
1747907675613.25,118,44277
1747907675614.25,118,44263
1747907675615.25,118,44254
1747907675616.25,118,44262
1747907675617.25,118,44295
1747907675618.25,119,44341
1747907675619.25,119,44390
1747907675620.25,119,44429
1747907675621.25,119,44437
1747907675622.25,119,44431
1747907675623.25,119,44406
1747907675624.25,119,44370
1747907675625.25,119,44348
1747907675626.125,119,44350
1747907675627.125,119,44348
1747907675628.125,119,44344
1747907675629.125,120,44340
1747907675630.125,120,44332
1747907675631.125,120,44334
1747907675632.125,120,44337
1747907675633.125,120,44347
1747907675634.125,120,44352
1747907675635.125,120,44353
1747907675636.125,120,44341
1747907675637.125,120,44322
1747907675638.125,120,44299
1747907675639.125,120,44271
1747907675640.125,121,44236
1747907675641.125,121,44205
1747907675642.031,121,44179
1747907675643.0308,121,44166
1747907675644.031,121,44149
1747907675645.031,121,44140
1747907675646.031,121,44131
1747907675647.031,121,44127
1747907675648.031,121,44135
1747907675649.031,121,44131
1747907675650.031,121,44123
1747907675651.031,122,44117
1747907675652.031,122,44115
1747907675653.031,122,44101
1747907675654.031,122,44086
1747907675655.031,122,44064
1747907675656.031,122,44027
1747907675657.031,122,43987
1747907675657.938,122,43938
1747907675658.937,122,43896
1747907675659.938,122,43854
1747907675660.937,122,43836
1747907675661.938,123,43813
1747907675662.937,123,43796
1747907675663.938,123,43776
1747907675664.937,123,43736
1747907675665.938,123,43700
1747907675666.937,123,43653
1747907675667.938,123,43622
1747907675668.937,123,43589
1747907675669.938,123,43574
1747907675670.937,123,43565
1747907675671.938,123,43577
1747907675672.937,124,43587
1747907675673.781,124,43596
1747907675674.781,124,43589
1747907675675.781,124,43586
1747907675676.781,124,43583
1747907675677.781,124,43589
1747907675678.781,124,43599
1747907675679.781,124,43602
1747907675680.781,124,43606
1747907675681.781,124,43603
1747907675682.781,124,43592
1747907675683.781,125,43584
1747907675684.781,125,43547
1747907675685.781,125,43504
1747907675686.781,125,43459
1747907675687.781,125,43421
1747907675688.781,125,43399
1747907675689.688,125,43393
1747907675690.687,125,43399
1747907675691.688,125,43403
1747907675692.687,125,43398
1747907675693.688,125,43377
1747907675694.687,126,43362
1747907675695.688,126,43357
1747907675696.687,126,43348
1747907675697.687,126,43317
1747907675698.688,126,43287
1747907675699.687,126,43247
1747907675700.688,126,43182
1747907675701.687,126,43103
1747907675702.688,126,43023
1747907675703.687,126,42953
1747907675704.688,126,42916
1747907675705.562,127,42896
1747907675706.563,127,42873
1747907675707.562,127,42872
1747907675708.563,127,42883
1747907675709.563,127,42914
1747907675710.562,127,42955
1747907675711.563,127,42990
1747907675712.562,127,43025
1747907675713.563,127,43042
1747907675714.562,127,43046
1747907675715.563,127,43029
1747907675716.562,128,43005
1747907675717.563,128,42968
1747907675718.5618,128,42931
1747907675719.563,128,42908
1747907675720.562,128,42894
1747907675721.469,128,42881
1747907675722.469,128,42867
1747907675723.469,128,42847
1747907675724.469,128,42822
1747907675725.469,128,42788
1747907675726.469,128,42750
1747907675727.469,129,42707
1747907675728.469,129,42675
1747907675729.469,129,42662
1747907675730.469,129,42671
1747907675731.469,129,42689
1747907675732.469,129,42694
1747907675733.469,129,42701
1747907675734.469,129,42702
1747907675735.469,129,42696
1747907675736.469,129,42688
1747907675737.344,129,42683
1747907675738.344,130,42680
1747907675739.344,130,42677
1747907675740.344,130,42689
1747907675741.344,130,42698
1747907675742.344,130,42692
1747907675743.344,130,42682
1747907675744.344,130,42675
1747907675745.344,130,42675
1747907675746.344,130,42668
1747907675747.344,130,42669
1747907675748.344,130,42658
1747907675749.344,131,42641
1747907675750.344,131,42638
1747907675751.344,131,42629
1747907675752.344,131,42620
1747907675753.219,131,42604
1747907675754.219,131,42591
1747907675755.219,131,42573
1747907675756.219,131,42557
1747907675757.219,131,42544
1747907675758.219,131,42533
1747907675759.219,131,42519
1747907675760.219,132,42506
1747907675761.219,132,42491
1747907675762.219,132,42476
1747907675763.2192,132,42464
1747907675764.219,132,42444
1747907675765.219,132,42428
1747907675766.219,132,42409
1747907675767.219,132,42392
1747907675768.219,132,42358
1747907675769.063,132,42310
1747907675770.062,132,42258
1747907675771.063,133,42230
1747907675772.063,133,42236
1747907675773.062,133,42255
1747907675774.063,133,42284
1747907675775.062,133,42283
1747907675776.063,133,42273
1747907675777.062,133,42263
1747907675778.063,133,42272
1747907675779.062,133,42291
1747907675780.063,133,42302
1747907675781.0618,133,42310
1747907675782.063,134,42299
1747907675783.062,134,42277
1747907675784.063,134,42265
1747907675784.969,134,42258
1747907675785.969,134,42248
1747907675786.969,134,42247
1747907675787.969,134,42257
1747907675788.969,134,42280
1747907675789.969,134,42309
1747907675790.969,134,42323
1747907675791.969,134,42330
1747907675792.969,135,42333
1747907675793.969,135,42331
1747907675794.969,135,42325
1747907675795.969,135,42306
1747907675796.969,135,42270
1747907675797.969,135,42228
1747907675798.969,135,42189
1747907675799.969,135,42149
1747907675800.844,135,42120
1747907675801.844,135,42093
1747907675802.844,135,42068
1747907675803.844,136,42051
1747907675804.844,136,42039
1747907675805.844,136,42039
1747907675806.844,136,42040
1747907675807.844,136,42040
1747907675808.844,136,42029
1747907675809.844,136,42017
1747907675810.844,136,42001
1747907675811.844,136,41971
1747907675812.844,136,41939
1747907675813.844,136,41900
1747907675814.844,137,41863
1747907675815.844,137,41828
1747907675816.75,137,41782
1747907675817.75,137,41741
1747907675818.75,137,41701
1747907675819.75,137,41679
1747907675820.75,137,41669
1747907675821.75,137,41661
1747907675822.75,137,41652
1747907675823.75,137,41631
1747907675824.75,137,41626
1747907675825.75,138,41631
1747907675826.75,138,41646
1747907675827.75,138,41646
1747907675828.75,138,41637
1747907675829.75,138,41611
1747907675830.75,138,41576
1747907675831.75,138,41533
1747907675832.625,138,41501
1747907675833.625,138,41475
1747907675834.625,138,41443
1747907675835.625,138,41402
1747907675836.625,139,41366
1747907675837.625,139,41335
1747907675838.625,139,41335
1747907675839.625,139,41364
1747907675840.625,139,41403
1747907675841.625,139,41429
1747907675842.625,139,41443
1747907675843.625,139,41445
1747907675844.625,139,41435
1747907675845.625,139,41425
1747907675846.625,139,41427
1747907675847.625,140,41423
1747907675848.5,140,41413
1747907675849.5,140,41405
1747907675850.5,140,41391
1747907675851.5,140,41375
1747907675852.5,140,41358
1747907675853.5,140,41338
1747907675854.5,140,41316
1747907675855.5,140,41294
1747907675856.5,140,41272
1747907675857.5,140,41250
1747907675858.5,141,41222
1747907675859.5,141,41194
1747907675860.5,141,41161
1747907675861.5,141,41126
1747907675862.5,141,41102
1747907675863.5,141,41082
1747907675864.375,141,41056
1747907675865.375,141,41032
1747907675866.375,141,41020
1747907675867.375,141,41015
1747907675868.375,141,41025
1747907675869.375,142,41033
1747907675870.375,142,41043
1747907675871.375,142,41045
1747907675872.375,142,41040
1747907675873.375,142,41023
1747907675874.375,142,40995
1747907675875.375,142,40951
1747907675876.375,142,40906
1747907675877.375,142,40873
1747907675878.375,142,40845
1747907675879.375,142,40823
1747907675880.281,143,40812
1747907675881.281,143,40809
1747907675882.281,143,40815
1747907675883.281,143,40832
1747907675884.281,143,40848
1747907675885.281,143,40856
1747907675886.281,143,40852
1747907675887.281,143,40827
1747907675888.281,143,40774
1747907675889.281,143,40725
1747907675890.281,143,40677
1747907675891.281,144,40636
1747907675892.281,144,40616
1747907675893.281,144,40627
1747907675894.281,144,40663
1747907675895.281,144,40718
1747907675896.156,144,40751
1747907675897.156,144,40783
1747907675898.156,144,40811
1747907675899.156,144,40834
1747907675900.156,144,40856
1747907675901.156,144,40876
1747907675902.156,145,40883
1747907675903.156,145,40867
1747907675904.156,145,40829
1747907675905.156,145,40809
1747907675906.156,145,40815
1747907675907.156,145,40806
1747907675908.156,145,40785
1747907675909.156,145,40773
1747907675910.156,145,40758
1747907675911.156,145,40749
1747907675912.0,145,40723
1747907675913.0,146,40711
1747907675914.0,146,40696
1747907675915.0,146,40694
1747907675916.0,146,40693
1747907675917.0,146,40689
1747907675918.0,146,40681
1747907675919.0,146,40666
1747907675920.0,146,40649
1747907675921.0,146,40632
1747907675922.0,146,40624
1747907675923.0,146,40604
1747907675924.0,147,40585
1747907675925.0,147,40564
1747907675926.0,147,40549
1747907675927.0,147,40541
1747907675927.906,147,40528
1747907675928.906,147,40508
1747907675929.906,147,40493
1747907675930.906,147,40476
1747907675931.906,147,40472
1747907675932.906,147,40466
1747907675933.906,147,40459
1747907675934.906,148,40457
1747907675935.906,148,40462
1747907675936.906,148,40464
1747907675937.906,148,40477
1747907675938.906,148,40479
1747907675939.9058,148,40477
1747907675940.906,148,40464
1747907675941.906,148,40456
1747907675942.906,148,40437
1747907675943.781,148,40412
1747907675944.781,148,40387
1747907675945.781,149,40372
1747907675946.781,149,40360
1747907675947.781,149,40340
1747907675948.781,149,40303
1747907675949.781,149,40272
1747907675950.781,149,40263
1747907675951.781,149,40270
1747907675952.781,149,40268
1747907675953.781,149,40254
1747907675954.781,149,40224
1747907675955.781,149,40193
1747907675956.781,150,40158
1747907675957.781,150,40130
1747907675958.781,150,40110
1747907675959.687,150,40104
1747907675960.6882,150,40103
1747907675961.687,150,40111
1747907675962.688,150,40137
1747907675963.687,150,40164
1747907675964.688,150,40182
1747907675965.688,150,40204
1747907675966.687,150,40219
1747907675967.688,151,40222
1747907675968.687,151,40220
1747907675969.688,151,40208
1747907675970.687,151,40181
1747907675971.688,151,40155
1747907675972.687,151,40119
1747907675973.688,151,40085
1747907675974.687,151,40064
1747907675975.563,151,40054
1747907675976.562,151,40044
1747907675977.562,151,40042
1747907675978.563,152,40047
1747907675979.562,152,40069
1747907675980.563,152,40082
1747907675981.562,152,40091
1747907675982.563,152,40090
1747907675983.562,152,40080
1747907675984.5632,152,40067
1747907675985.562,152,40053
1747907675986.563,152,40017
1747907675987.562,152,39980
1747907675988.563,152,39969
1747907675989.562,153,39974
1747907675990.563,153,39977
1747907675991.469,153,39978
1747907675992.469,153,39983
1747907675993.469,153,39985
1747907675994.469,153,39973
1747907675995.469,153,39952
1747907675996.469,153,39925
1747907675997.469,153,39921
1747907675998.469,153,39926
1747907675999.469,153,39945
1747907676000.469,154,39961
1747907676001.469,154,39978
1747907676002.469,154,39978
1747907676003.469,154,39969
1747907676004.469,154,39953
1747907676005.469,154,39933
1747907676006.469,154,39912
1747907676007.312,154,39894
1747907676008.313,154,39880
1747907676009.312,154,39870
1747907676010.313,154,39869
1747907676011.312,155,39864
1747907676012.313,155,39870
1747907676013.312,155,39866
1747907676014.313,155,39860
1747907676015.312,155,39838
1747907676016.313,155,39822
1747907676017.313,155,39825
1747907676018.312,155,39835
1747907676019.313,155,39839
1747907676020.312,155,39843
1747907676021.313,155,39836
1747907676022.312,156,39823
1747907676023.219,156,39807
1747907676024.219,156,39787
1747907676025.219,156,39770
1747907676026.219,156,39757
1747907676027.219,156,39759
1747907676028.219,156,39786
1747907676029.219,156,39806
1747907676030.219,156,39821
1747907676031.219,156,39825
1747907676032.219,156,39820
1747907676033.219,157,39816
1747907676034.219,157,39804
1747907676035.219,157,39781
1747907676036.219,157,39752
1747907676037.219,157,39723
1747907676038.219,157,39695
1747907676039.094,157,39657
1747907676040.094,157,39617
1747907676041.094,157,39584
1747907676042.094,157,39556
1747907676043.094,157,39528
1747907676044.094,158,39512
1747907676045.094,158,39514
1747907676046.094,158,39527
1747907676047.094,158,39537
1747907676048.094,158,39549
1747907676049.094,158,39563
1747907676050.094,158,39573
1747907676051.094,158,39572
1747907676052.094,158,39565
1747907676053.094,158,39557
1747907676054.094,158,39558
1747907676055.0,159,39559
1747907676056.0,159,39563
1747907676057.0,159,39567
1747907676058.0,159,39574
1747907676059.0,159,39582
1747907676060.0,159,39581
1747907676061.0,159,39574
1747907676062.0,159,39551
1747907676063.0,159,39526
1747907676064.0,159,39502
1747907676065.0,159,39476
1747907676066.0,160,39441
1747907676067.0,160,39394
1747907676068.0,160,39346
1747907676069.0,160,39303
1747907676070.0,160,39284
1747907676070.844,160,39276
1747907676071.844,160,39276
1747907676072.844,160,39268
1747907676073.844,160,39265
1747907676074.844,160,39288
1747907676075.844,160,39307
1747907676076.844,161,39331
1747907676077.844,161,39345
1747907676078.844,161,39349
1747907676079.844,161,39342
1747907676080.844,161,39333
1747907676081.844,161,39310
1747907676082.844,161,39280
1747907676083.844,161,39254
1747907676084.844,161,39226
1747907676085.844,161,39211
1747907676086.719,161,39201
1747907676087.719,162,39200
1747907676088.719,162,39202
1747907676089.719,162,39214
1747907676090.719,162,39238
1747907676091.719,162,39256
1747907676092.719,162,39269
1747907676093.719,162,39267
1747907676094.719,162,39267
1747907676095.719,162,39256
1747907676096.719,162,39245
1747907676097.719,162,39222
1747907676098.719,163,39202
1747907676099.719,163,39169
1747907676100.719,163,39140
1747907676101.719,163,39119
1747907676102.625,163,39092
1747907676103.625,163,39077
1747907676104.625,163,39068
1747907676105.625,163,39068
1747907676106.625,163,39079
1747907676107.625,163,39085
1747907676108.625,163,39101
1747907676109.625,164,39117
1747907676110.625,164,39147
1747907676111.625,164,39160
1747907676112.625,164,39169
1747907676113.625,164,39159
1747907676114.625,164,39135
1747907676115.625,164,39111
1747907676116.625,164,39092
1747907676117.625,164,39085
1747907676118.5,164,39073
1747907676119.5,164,39064
1747907676120.5,165,39038
1747907676121.5,165,39017
1747907676122.5,165,39002
1747907676123.5,165,38986
1747907676124.5,165,38976
1747907676125.5,165,38974
1747907676126.5,165,38968
1747907676127.5,165,38973
1747907676128.5,165,38985
1747907676129.5,165,38993
1747907676130.5,165,39016
1747907676131.5,166,39028
1747907676132.5,166,39042
1747907676133.5,166,39055
1747907676134.406,166,39070
1747907676135.406,166,39090
1747907676136.406,166,39097
1747907676137.406,166,39108
1747907676138.406,166,39121
1747907676139.406,166,39136
1747907676140.406,166,39157
1747907676141.406,166,39168
1747907676142.406,167,39166
1747907676143.406,167,39160
1747907676144.406,167,39144
1747907676145.406,167,39115
1747907676146.406,167,39108
1747907676147.406,167,39139
1747907676148.406,167,39181
1747907676149.406,167,39220
1747907676150.281,167,39255
1747907676151.281,167,39301
1747907676152.281,167,39363
1747907676153.281,168,39428
1747907676154.281,168,39490
1747907676155.281,168,39547
1747907676156.281,168,39594
1747907676157.281,168,39627
1747907676158.281,168,39658
1747907676159.281,168,39683
1747907676160.281,168,39705
1747907676161.281,168,39715
1747907676162.281,168,39722
1747907676163.281,168,39727
1747907676164.281,169,39739
1747907676165.281,169,39737
1747907676166.156,169,39734
1747907676167.156,169,39741
1747907676168.156,169,39742
1747907676169.156,169,39736
1747907676170.156,169,39720
1747907676171.156,169,39681
1747907676172.156,169,39640
1747907676173.156,169,39613
1747907676174.156,169,39594
1747907676175.156,170,39558
1747907676176.156,170,39520
1747907676177.156,170,39477
1747907676178.156,170,39424
1747907676179.156,170,39358
1747907676180.156,170,39289
1747907676181.156,170,39224
1747907676182.031,170,39175
1747907676183.031,170,39137
1747907676184.031,170,39106
1747907676185.031,170,39084
1747907676186.031,171,39059
1747907676187.031,171,39023
1747907676188.031,171,38974
1747907676189.031,171,38915
1747907676190.031,171,38849
1747907676191.031,171,38777
1747907676192.031,171,38714
1747907676193.031,171,38647
1747907676194.031,171,38591
1747907676195.031,171,38551
1747907676196.031,171,38519
1747907676197.031,172,38492
1747907676197.938,172,38473
1747907676198.937,172,38491
1747907676199.938,172,38520
1747907676200.937,172,38575
1747907676201.938,172,38635
1747907676202.9368,172,38688
1747907676203.938,172,38735
1747907676204.937,172,38783
1747907676205.938,172,38825
1747907676206.937,172,38857
1747907676207.938,173,38873
1747907676208.937,173,38871
1747907676209.938,173,38855
1747907676210.938,173,38825
1747907676211.937,173,38811
1747907676212.938,173,38791
1747907676213.906,173,38771
1747907676214.906,173,38749
1747907676215.906,173,38728
1747907676216.906,173,38721
1747907676217.906,173,38715
1747907676218.906,174,38709
1747907676219.906,174,38703
1747907676220.906,174,38707
1747907676221.906,174,38718
1747907676222.906,174,38729
1747907676223.906,174,38747
1747907676224.906,174,38760
1747907676225.906,174,38764
1747907676226.906,174,38749
1747907676227.906,174,38727
1747907676228.906,174,38701
1747907676229.719,175,38685
1747907676230.719,175,38671
1747907676231.719,175,38661
1747907676232.719,175,38659
1747907676233.719,175,38657
1747907676234.719,175,38653
1747907676235.719,175,38657
1747907676236.719,175,38652
1747907676237.719,175,38647
1747907676238.719,175,38646
1747907676239.719,175,38662
1747907676240.719,176,38661
1747907676241.719,176,38643
1747907676242.719,176,38627
1747907676243.719,176,38616
1747907676244.719,176,38621
1747907676245.563,176,38635
1747907676246.562,176,38643
1747907676247.563,176,38646
1747907676248.562,176,38643
1747907676249.563,176,38658
1747907676250.562,176,38674
1747907676251.563,177,38683
1747907676252.562,177,38677
1747907676253.563,177,38677
1747907676254.562,177,38676
1747907676255.563,177,38674
1747907676256.562,177,38663
1747907676257.5632,177,38639
1747907676258.562,177,38617
1747907676259.563,177,38592
1747907676260.562,177,38581
1747907676261.469,177,38573
1747907676262.469,178,38579
1747907676263.469,178,38597
1747907676264.469,178,38626
1747907676265.469,178,38652
1747907676266.469,178,38668
1747907676267.469,178,38680
1747907676268.469,178,38687
1747907676269.469,178,38681
1747907676270.469,178,38667
1747907676271.4692,178,38651
1747907676272.469,178,38629
1747907676273.469,179,38608
1747907676274.469,179,38595
1747907676275.469,179,38585
1747907676276.469,179,38573
1747907676277.344,179,38561
1747907676278.344,179,38552
1747907676279.344,179,38558
1747907676280.344,179,38571
1747907676281.344,179,38582
1747907676282.344,179,38589
1747907676283.344,179,38595
1747907676284.344,180,38601
1747907676285.344,180,38599
1747907676286.344,180,38578
1747907676287.344,180,38542
1747907676288.344,180,38509
1747907676289.344,180,38501
1747907676290.344,180,38504
1747907676291.344,180,38514
1747907676292.344,180,38525
1747907676293.219,180,38530
1747907676294.219,180,38539
1747907676295.219,181,38555
1747907676296.219,181,38565
1747907676297.219,181,38581
1747907676298.219,181,38597
1747907676299.219,181,38604
1747907676300.219,181,38597
1747907676301.219,181,38570
1747907676302.219,181,38544
1747907676303.219,181,38528
1747907676304.219,181,38507
1747907676305.219,181,38484
1747907676306.219,182,38470
1747907676307.219,182,38464
1747907676308.219,182,38450
1747907676309.094,182,38437
1747907676310.0942,182,38427
1747907676311.094,182,38423
1747907676312.094,182,38423
1747907676313.094,182,38440
1747907676314.094,182,38471
1747907676315.094,182,38509
1747907676316.094,182,38540
1747907676317.094,183,38559
1747907676318.094,183,38566
1747907676319.094,183,38569
1747907676320.094,183,38565
1747907676321.094,183,38549
1747907676322.094,183,38523
1747907676323.094,183,38509
1747907676324.094,183,38517
1747907676325.0,183,38518
1747907676326.0,183,38506
1747907676327.0,183,38490
1747907676328.0,184,38496
1747907676329.0,184,38528
1747907676330.0,184,38556
1747907676331.0,184,38576
1747907676332.0,184,38587
1747907676333.0,184,38599
1747907676334.0,184,38606
1747907676335.0,184,38613
1747907676336.0,184,38605
1747907676337.0,184,38587
1747907676338.0,184,38559
1747907676339.0,185,38531
1747907676340.0,185,38504
1747907676340.875,185,38492
1747907676341.875,185,38492
1747907676342.875,185,38490
1747907676343.875,185,38492
1747907676344.875,185,38507
1747907676345.875,185,38511
1747907676346.875,185,38519
1747907676347.875,185,38520
1747907676348.875,185,38526
1747907676349.875,186,38526
1747907676350.875,186,38521
1747907676351.875,186,38506
1747907676352.875,186,38487
1747907676353.875,186,38468
1747907676354.875,186,38437
1747907676355.875,186,38422
1747907676356.781,186,38415
1747907676357.781,186,38406
1747907676358.781,186,38403
1747907676359.781,186,38428
1747907676360.781,187,38465
1747907676361.7808,187,38494
1747907676362.781,187,38514
1747907676363.781,187,38516
1747907676364.781,187,38510
1747907676365.781,187,38521
1747907676366.781,187,38520
1747907676367.781,187,38511
1747907676368.781,187,38499
1747907676369.781,187,38486
1747907676370.781,187,38473
1747907676371.781,188,38469
1747907676372.656,188,38465
1747907676373.656,188,38451
1747907676374.656,188,38438
1747907676375.656,188,38438
1747907676376.656,188,38431
1747907676377.656,188,38419
1747907676378.656,188,38415
1747907676379.656,188,38412
1747907676380.656,188,38396
1747907676381.656,188,38360
1747907676382.656,189,38315
1747907676383.656,189,38268
1747907676384.656,189,38239
1747907676385.656,189,38243
1747907676386.656,189,38274
1747907676387.656,189,38309
1747907676388.531,189,38344
1747907676389.531,189,38367
1747907676390.531,189,38380
1747907676391.531,189,38399
1747907676392.531,189,38412
1747907676393.531,190,38411
1747907676394.531,190,38419
1747907676395.531,190,38419
1747907676396.531,190,38414
1747907676397.531,190,38405
1747907676398.531,190,38401
1747907676399.531,190,38390
1747907676400.531,190,38378
1747907676401.531,190,38360
1747907676402.531,190,38333
1747907676403.531,190,38295
1747907676404.406,191,38248
1747907676405.406,191,38211
1747907676406.406,191,38188
1747907676407.406,191,38179
1747907676408.406,191,38183
1747907676409.406,191,38200
1747907676410.406,191,38213
1747907676411.406,191,38228
1747907676412.406,191,38243
1747907676413.406,191,38251
1747907676414.406,191,38251
1747907676415.406,192,38240
1747907676416.406,192,38231
1747907676417.406,192,38215
1747907676418.406,192,38188
1747907676419.406,192,38154
1747907676420.312,192,38124
1747907676421.313,192,38104
1747907676422.312,192,38094
1747907676423.313,192,38103
1747907676424.312,192,38118
1747907676425.313,192,38145
1747907676426.312,193,38164
1747907676427.313,193,38184
1747907676428.313,193,38199
1747907676429.312,193,38201
1747907676430.313,193,38205
1747907676431.312,193,38203
1747907676432.313,193,38197
1747907676433.312,193,38187
1747907676434.313,193,38178
1747907676435.312,193,38159
1747907676436.188,193,38141
1747907676437.187,194,38121
1747907676438.188,194,38096
1747907676439.188,194,38071
1747907676440.187,194,38049
1747907676441.188,194,38025
1747907676442.187,194,38012
1747907676443.188,194,38015
1747907676444.187,194,38004
1747907676445.188,194,38002
1747907676446.187,194,37997
1747907676447.188,194,37992
1747907676448.187,195,37987
1747907676449.188,195,37987
1747907676450.187,195,37993
1747907676451.188,195,38003
1747907676452.063,195,38001
1747907676453.062,195,38008
1747907676454.063,195,38021
1747907676455.062,195,38037
1747907676456.063,195,38055
1747907676457.062,195,38065
1747907676458.063,195,38068
1747907676459.062,196,38066
1747907676460.063,196,38047
1747907676461.062,196,38026
1747907676462.063,196,38019
1747907676463.062,196,38002
1747907676464.063,196,37976
1747907676465.062,196,37956
1747907676466.063,196,37938
1747907676467.062,196,37925
1747907676467.969,196,37921
1747907676468.969,196,37931
1747907676469.969,197,37961
1747907676470.969,197,37995
1747907676471.969,197,38020
1747907676472.969,197,38040
1747907676473.969,197,38046
1747907676474.969,197,38041
1747907676475.969,197,38049
1747907676476.969,197,38059
1747907676477.969,197,38049
1747907676478.969,197,38021
1747907676479.969,197,37973
1747907676480.969,198,37934
1747907676481.9692,198,37906
1747907676482.969,198,37888
1747907676483.844,198,37873
1747907676484.844,198,37862
1747907676485.844,198,37857
1747907676486.844,198,37860
1747907676487.844,198,37873
1747907676488.844,198,37892
1747907676489.844,198,37914
1747907676490.844,198,37932
1747907676491.844,199,37947
1747907676492.844,199,37971
1747907676493.844,199,37989
1747907676494.844,199,37986
1747907676495.844,199,37990
1747907676496.844,199,37988
1747907676497.844,199,37985
1747907676498.844,199,37975
1747907676499.719,199,37968
1747907676500.719,199,37959
1747907676501.719,199,37961
1747907676502.719,200,37956
1747907676503.719,200,37952
1747907676504.719,200,37946
1747907676505.719,200,37939
1747907676506.719,200,37923
1747907676507.719,200,37916
1747907676508.719,200,37902
1747907676509.719,200,37886
1747907676510.719,200,37870
1747907676511.719,200,37850
1747907676512.719,200,37840
1747907676513.719,201,37829
1747907676514.719,201,37823
1747907676515.625,201,37811
1747907676516.625,201,37803
1747907676517.625,201,37810
1747907676518.625,201,37819
1747907676519.625,201,37830
1747907676520.625,201,37848
1747907676521.625,201,37868
1747907676522.625,201,37906
1747907676523.625,201,37932
1747907676524.625,202,37942
1747907676525.625,202,37945
1747907676526.625,202,37928
1747907676527.625,202,37904
1747907676528.625,202,37877
1747907676529.625,202,37859
1747907676530.625,202,37842
1747907676531.5,202,37828
1747907676532.5,202,37813
1747907676533.5,202,37813
1747907676534.5,202,37815
1747907676535.5,203,37820
1747907676536.5,203,37820
1747907676537.5,203,37821
1747907676538.5,203,37814
1747907676539.5,203,37802
1747907676540.5,203,37780
1747907676541.5,203,37764
1747907676542.5,203,37758
1747907676543.5,203,37749
1747907676544.5,203,37749
1747907676545.5,203,37746
1747907676546.5,204,37750
1747907676547.375,204,37754
1747907676548.375,204,37766
1747907676549.375,204,37775
1747907676550.375,204,37781
1747907676551.375,204,37779
1747907676552.375,204,37766
1747907676553.375,204,37750
1747907676554.375,204,37738
1747907676555.375,204,37749
1747907676556.375,204,37783
1747907676557.375,205,37812
1747907676558.375,205,37829
1747907676559.375,205,37835
1747907676560.375,205,37841
1747907676561.375,205,37845
1747907676562.375,205,37847
1747907676563.219,205,37840
1747907676564.219,205,37835
1747907676565.219,205,37829
1747907676566.219,205,37833
1747907676567.219,205,37847
1747907676568.219,206,37851
1747907676569.219,206,37844
1747907676570.219,206,37824
1747907676571.219,206,37815
1747907676572.219,206,37804
1747907676573.219,206,37783
1747907676574.219,206,37748
1747907676575.219,206,37711
1747907676576.219,206,37677
1747907676577.219,206,37663
1747907676578.219,206,37663
1747907676579.125,207,37667
1747907676580.125,207,37685
1747907676581.125,207,37699
1747907676582.125,207,37725
1747907676583.125,207,37758
1747907676584.125,207,37772
1747907676585.125,207,37771
1747907676586.125,207,37761
1747907676587.125,207,37745
1747907676588.125,207,37718
1747907676589.125,207,37679
1747907676590.125,208,37631
1747907676591.125,208,37593
1747907676592.125,208,37566
1747907676593.125,208,37570
1747907676594.125,208,37570
1747907676595.031,208,37569
1747907676596.031,208,37537
1747907676597.031,208,37489
1747907676598.031,208,37460
1747907676599.031,208,37468
1747907676600.031,208,37506
1747907676601.031,209,37552
1747907676602.031,209,37598
1747907676603.031,209,37646
1747907676604.031,209,37681
1747907676605.031,209,37709
1747907676606.031,209,37719
1747907676607.031,209,37711
1747907676608.031,209,37678
1747907676609.031,209,37648
1747907676610.031,209,37627
1747907676610.906,209,37619
1747907676611.906,210,37626
1747907676612.906,210,37639
1747907676613.906,210,37657
1747907676614.906,210,37675
1747907676615.906,210,37682
1747907676616.906,210,37680
1747907676617.906,210,37679
1747907676618.906,210,37672
1747907676619.906,210,37675
1747907676620.906,210,37685
1747907676621.906,210,37683
1747907676622.906,211,37675
1747907676623.906,211,37659
1747907676624.906,211,37644
1747907676625.906,211,37639
1747907676626.844,211,37639
1747907676627.844,211,37633
1747907676628.844,211,37616
1747907676629.844,211,37605
1747907676630.8442,211,37592
1747907676631.844,211,37581
1747907676632.844,211,37583
1747907676633.844,212,37581
1747907676634.844,212,37585
1747907676635.844,212,37605
1747907676636.844,212,37636
1747907676637.844,212,37659
1747907676638.844,212,37664
1747907676639.844,212,37666
1747907676640.844,212,37666
1747907676641.844,212,37671
1747907676642.688,212,37678
1747907676643.687,212,37679
1747907676644.687,213,37677
1747907676645.688,213,37681
1747907676646.687,213,37689
1747907676647.688,213,37693
1747907676648.6868,213,37681
1747907676649.688,213,37667
1747907676650.687,213,37649
1747907676651.688,213,37640
1747907676652.687,213,37640
1747907676653.688,213,37634
1747907676654.687,213,37611
1747907676655.688,214,37597
1747907676656.687,214,37582
1747907676657.688,214,37570
1747907676658.563,214,37561
1747907676659.562,214,37549
1747907676660.563,214,37543
1747907676661.562,214,37549
1747907676662.563,214,37563
1747907676663.562,214,37577
1747907676664.563,214,37582
1747907676665.562,214,37576
1747907676666.563,215,37570
1747907676667.562,215,37548
1747907676668.563,215,37524
1747907676669.562,215,37489
1747907676670.563,215,37444
1747907676671.562,215,37397
1747907676672.563,215,37370
1747907676673.563,215,37358
1747907676674.469,215,37365
1747907676675.469,215,37386
1747907676676.469,215,37410
1747907676677.469,216,37438
1747907676678.469,216,37473
1747907676679.469,216,37499
1747907676680.469,216,37517
1747907676681.469,216,37526
1747907676682.469,216,37525
1747907676683.469,216,37524
1747907676684.469,216,37515
1747907676685.469,216,37498
1747907676686.469,216,37473
1747907676687.469,216,37450
1747907676688.469,217,37424
1747907676689.469,217,37408
1747907676690.344,217,37390
1747907676691.344,217,37371
1747907676692.344,217,37362
1747907676693.3442,217,37362
1747907676694.344,217,37367
1747907676695.344,217,37386
1747907676696.344,217,37395
1747907676697.344,217,37407
1747907676698.344,217,37413
1747907676699.344,218,37403
1747907676700.344,218,37379
1747907676701.344,218,37349
1747907676702.344,218,37324
1747907676703.344,218,37312
1747907676704.344,218,37302
1747907676705.344,218,37308
1747907676706.219,218,37321
1747907676707.219,218,37316
1747907676708.219,218,37327
1747907676709.219,218,37336
1747907676710.219,219,37364
1747907676711.219,219,37379
1747907676712.219,219,37393
1747907676713.219,219,37390
1747907676714.219,219,37379
1747907676715.219,219,37376
1747907676716.219,219,37381
1747907676717.219,219,37381
1747907676718.219,219,37374
1747907676719.219,219,37374
1747907676720.219,219,37374
1747907676721.219,220,37372
1747907676722.125,220,37364
1747907676723.125,220,37349
1747907676724.125,220,37341
1747907676725.125,220,37347
1747907676726.125,220,37358
1747907676727.125,220,37368
1747907676728.125,220,37373
1747907676729.125,220,37384
1747907676730.125,220,37388
1747907676731.125,220,37389
1747907676732.125,221,37397
1747907676733.125,221,37396
1747907676734.125,221,37389
1747907676735.125,221,37382
1747907676736.125,221,37375
1747907676737.125,221,37365
1747907676738.0,221,37362
1747907676739.0,221,37371
1747907676740.0,221,37397
1747907676741.0,221,37444
1747907676742.0,221,37471
1747907676743.0,222,37469
1747907676744.0,222,37447
1747907676745.0,222,37417
1747907676746.0,222,37424
1747907676747.0,222,37481
1747907676748.0,222,37591
1747907676749.0,222,37707
1747907676750.0,222,37817
1747907676751.0,222,37920
1747907676752.0,222,38007
1747907676753.0,222,38076
1747907676753.906,223,38135
1747907676754.906,223,38188
1747907676755.906,223,38231
1747907676756.906,223,38268
1747907676757.906,223,38286
1747907676758.906,223,38295
1747907676759.906,223,38285
1747907676760.906,223,38255
1747907676761.906,223,38211
1747907676762.906,223,38153
1747907676763.906,223,38079
1747907676764.906,224,37995
1747907676765.906,224,37907
1747907676766.906,224,37823
1747907676767.906,224,37749
1747907676768.906,224,37679
1747907676769.781,224,37625
1747907676770.781,224,37583
1747907676771.781,224,37550
1747907676772.781,224,37535
1747907676773.781,224,37529
1747907676774.781,224,37517
1747907676775.781,225,37491
1747907676776.781,225,37461
1747907676777.781,225,37417
1747907676778.781,225,37359
1747907676779.781,225,37291
1747907676780.781,225,37202
1747907676781.781,225,37113
1747907676782.781,225,37014
1747907676783.781,225,36919
1747907676784.781,225,36845
1747907676785.656,225,36792
1747907676786.656,226,36759
1747907676787.656,226,36744
1747907676788.656,226,36753
1747907676789.656,226,36774
1747907676790.656,226,36800
1747907676791.656,226,36829
1747907676792.656,226,36857
1747907676793.656,226,36878
1747907676794.656,226,36891
1747907676795.656,226,36915
1747907676796.656,226,36925
1747907676797.656,227,36928
1747907676798.656,227,36926
1747907676799.656,227,36924
1747907676800.656,227,36915
1747907676801.531,227,36893
1747907676802.531,227,36889
1747907676803.531,227,36890
1747907676804.531,227,36892
1747907676805.531,227,36915
1747907676806.531,227,36940
1747907676807.531,227,36964
1747907676808.531,228,36998
1747907676809.531,228,37025
1747907676810.531,228,37045
1747907676811.531,228,37062
1747907676812.531,228,37061
1747907676813.531,228,37063
1747907676814.531,228,37073
1747907676815.531,228,37084
1747907676816.531,228,37104
1747907676817.438,228,37109
1747907676818.437,228,37114
1747907676819.438,229,37107
1747907676820.437,229,37110
1747907676821.438,229,37106
1747907676822.437,229,37108
1747907676823.438,229,37101
1747907676824.437,229,37097
1747907676825.438,229,37095
1747907676826.437,229,37085
1747907676827.437,229,37071
1747907676828.438,229,37047
1747907676829.437,229,37023
1747907676830.438,230,36998
1747907676831.437,230,36978
1747907676832.438,230,36967
1747907676833.344,230,36960
1747907676834.344,230,36954
1747907676835.344,230,36953
1747907676836.344,230,36955
1747907676837.344,230,36965
1747907676838.344,230,36976
1747907676839.344,230,36994
1747907676840.344,230,36998
1747907676841.3442,231,36989
1747907676842.344,231,36972
1747907676843.344,231,36955
1747907676844.344,231,36939
1747907676845.344,231,36928
1747907676846.344,231,36913
1747907676847.344,231,36897
1747907676848.344,231,36904
1747907676849.219,231,36909
1747907676850.219,231,36917
1747907676851.219,231,36926
1747907676852.219,232,36939
1747907676853.219,232,36948
1747907676854.219,232,36966
1747907676855.219,232,36975
1747907676856.219,232,36974
1747907676857.219,232,36966
1747907676858.219,232,36949
1747907676859.219,232,36951
1747907676860.219,232,36950
1747907676861.219,232,36935
1747907676862.219,232,36925
1747907676863.219,233,36918
1747907676864.219,233,36902
1747907676865.094,233,36893
1747907676866.094,233,36890
1747907676867.094,233,36901
1747907676868.094,233,36917
1747907676869.094,233,36935
1747907676870.094,233,36952
1747907676871.094,233,36954
1747907676872.094,233,36954
1747907676873.094,233,36938
1747907676874.094,234,36930
1747907676875.094,234,36915
1747907676876.094,234,36894
1747907676877.094,234,36876
1747907676878.094,234,36846
1747907676879.094,234,36826
1747907676880.094,234,36803
1747907676880.969,234,36790
1747907676881.969,234,36782
1747907676882.969,234,36785
1747907676883.969,234,36796
1747907676884.969,235,36811
1747907676885.969,235,36826
1747907676886.969,235,36818
1747907676887.969,235,36797
1747907676888.969,235,36758
1747907676889.969,235,36715
1747907676890.969,235,36703
1747907676891.969,235,36701
1747907676892.969,235,36706
1747907676893.969,235,36697
1747907676894.969,235,36688
1747907676895.969,236,36693
1747907676896.875,236,36723
1747907676897.875,236,36779
1747907676898.875,236,36837
1747907676899.875,236,36891
1747907676900.875,236,36929
1747907676901.875,236,36964
1747907676902.875,236,36991
1747907676903.875,236,37020
1747907676904.875,236,37043
1747907676905.875,236,37060
1747907676906.875,237,37065
1747907676907.875,237,37048
1747907676908.875,237,37015
1747907676909.875,237,36981
1747907676910.875,237,36951
1747907676911.875,237,36920
1747907676912.75,237,36884
1747907676913.75,237,36844
1747907676914.75,237,36810
1747907676915.75,237,36791
1747907676916.75,237,36779
1747907676917.75,238,36787
1747907676918.75,238,36796
1747907676919.75,238,36808
1747907676920.75,238,36811
1747907676921.75,238,36819
1747907676922.75,238,36827
1747907676923.75,238,36834
1747907676924.75,238,36829
1747907676925.75,238,36827
1747907676926.75,238,36825
1747907676927.75,238,36822
1747907676928.625,239,36815
1747907676929.625,239,36810
1747907676930.625,239,36804
1747907676931.625,239,36797
1747907676932.625,239,36793
1747907676933.625,239,36792
1747907676934.625,239,36801
1747907676935.625,239,36813
1747907676936.625,239,36819
1747907676937.625,239,36811
1747907676938.625,239,36812
1747907676939.625,240,36802
1747907676940.625,240,36785
1747907676941.625,240,36755
1747907676942.625,240,36727
1747907676943.625,240,36704
1747907676944.5,240,36695
1747907676945.5,240,36684
1747907676946.5,240,36681
1747907676947.5,240,36678
1747907676948.5,240,36685
1747907676949.5,240,36681
1747907676950.5,241,36692
1747907676951.5,241,36717
1747907676952.5,241,36744
1747907676953.5,241,36768
1747907676954.5,241,36777
1747907676955.5,241,36764
1747907676956.5,241,36731
1747907676957.5,241,36681
1747907676958.5,241,36639
1747907676959.5,241,36608
1747907676960.344,241,36603
1747907676961.344,242,36622
1747907676962.344,242,36643
1747907676963.344,242,36687
1747907676964.344,242,36739
1747907676965.344,242,36784
1747907676966.3442,242,36821
1747907676967.344,242,36846
1747907676968.344,242,36868
1747907676969.344,242,36876
1747907676970.344,242,36864
1747907676971.344,242,36844
1747907676972.344,243,36805
1747907676973.344,243,36766
1747907676974.344,243,36734
1747907676975.344,243,36705
1747907676976.25,243,36679
1747907676977.25,243,36641
1747907676978.25,243,36621
1747907676979.25,243,36621
1747907676980.25,243,36645
1747907676981.25,243,36658
1747907676982.25,243,36667
1747907676983.25,244,36668
1747907676984.25,244,36667
1747907676985.25,244,36657
1747907676986.25,244,36653
1747907676987.25,244,36642
1747907676988.25,244,36622
1747907676989.25,244,36596
1747907676990.25,244,36573
1747907676991.25,244,36549
1747907676992.125,244,36521
1747907676993.125,244,36496
1747907676994.125,245,36473
1747907676995.125,245,36461
1747907676996.125,245,36454
1747907676997.125,245,36440
1747907676998.125,245,36442
1747907676999.125,245,36453
1747907677000.125,245,36464
1747907677001.125,245,36477
1747907677002.125,245,36482
1747907677003.125,245,36477
1747907677004.125,245,36469
1747907677005.125,246,36444
1747907677006.125,246,36412
1747907677007.125,246,36388
1747907677008.031,246,36353
1747907677009.031,246,36319
1747907677010.031,246,36282
1747907677011.031,246,36260
1747907677012.031,246,36250
1747907677013.031,246,36251
1747907677014.031,246,36258
1747907677015.031,246,36260
1747907677016.031,247,36272
1747907677017.031,247,36296
1747907677018.0308,247,36332
1747907677019.031,247,36356
1747907677020.031,247,36354
1747907677021.031,247,36343
1747907677022.031,247,36316
1747907677023.031,247,36305
1747907677023.906,247,36295
1747907677024.906,247,36279
1747907677025.906,247,36246
1747907677026.906,248,36214
1747907677027.906,248,36188
1747907677028.906,248,36172
1747907677029.906,248,36172
1747907677030.906,248,36167
1747907677031.906,248,36145
1747907677032.906,248,36134
1747907677033.906,248,36140
1747907677034.906,248,36156
1747907677035.906,248,36158
1747907677036.906,248,36160
1747907677037.906,249,36164
1747907677038.906,249,36181
1747907677039.781,249,36196
1747907677040.781,249,36200
1747907677041.781,249,36203
1747907677042.781,249,36204
1747907677043.781,249,36213
1747907677044.781,249,36210
1747907677045.781,249,36201
1747907677046.781,249,36204
1747907677047.781,249,36200
1747907677048.781,250,36190
1747907677049.781,250,36170
1747907677050.781,250,36144
1747907677051.781,250,36116
1747907677052.781,250,36093
1747907677053.781,250,36080
1747907677054.781,250,36072
1747907677055.656,250,36073
1747907677056.6558,250,36072
1747907677057.656,250,36083
1747907677058.656,250,36102
1747907677059.656,251,36122
1747907677060.656,251,36132
1747907677061.656,251,36141
1747907677062.656,251,36127
1747907677063.656,251,36112
1747907677064.656,251,36088
1747907677065.656,251,36054
1747907677066.656,251,36007
1747907677067.656,251,35963
1747907677068.656,251,35925
1747907677069.656,251,35890
1747907677070.656,252,35853
1747907677071.563,252,35841
1747907677072.562,252,35835
1747907677073.563,252,35831
1747907677074.562,252,35832
1747907677075.563,252,35834
1747907677076.562,252,35855
1747907677077.563,252,35893
1747907677078.562,252,35934
1747907677079.563,252,35978
1747907677080.562,252,36021
1747907677081.563,253,36044
1747907677082.562,253,36048
1747907677083.563,253,36035
1747907677084.563,253,36027
1747907677085.562,253,36013
1747907677086.563,253,35995
1747907677087.437,253,35969
1747907677088.438,253,35945
1747907677089.437,253,35918
1747907677090.438,253,35905
1747907677091.437,253,35894
1747907677092.438,254,35888
1747907677093.437,254,35880
1747907677094.438,254,35879
1747907677095.438,254,35882
1747907677096.437,254,35887
1747907677097.438,254,35892
1747907677098.437,254,35883
1747907677099.438,254,35861
1747907677100.437,254,35836
1747907677101.438,254,35808
1747907677102.437,254,35779
1747907677103.313,255,35761
1747907677104.312,255,35769
1747907677105.313,255,35787
1747907677106.313,255,35813
1747907677107.312,255,35856
1747907677108.313,255,35892
1747907677109.312,255,35924
1747907677110.313,255,35936
1747907677111.312,255,35938
1747907677112.313,255,35926
1747907677113.312,255,35904
1747907677114.313,256,35884
1747907677115.312,256,35870
1747907677116.313,256,35853
1747907677117.312,256,35849
1747907677118.313,256,35843
1747907677119.1558,256,35838
1747907677120.156,256,35818
1747907677121.156,256,35796
1747907677122.156,256,35779
1747907677123.156,256,35768
1747907677124.156,256,35758
1747907677125.156,257,35758
1747907677126.156,257,35765
1747907677127.156,257,35768
1747907677128.156,257,35776
1747907677129.156,257,35785
1747907677130.156,257,35782
1747907677131.156,257,35770
1747907677132.156,257,35762
1747907677133.156,257,35760
1747907677134.156,257,35761
1747907677135.094,257,35771
1747907677136.094,258,35772
1747907677137.094,258,35784
1747907677138.094,258,35803
1747907677139.094,258,35813
1747907677140.094,258,35813
1747907677141.094,258,35802
1747907677142.094,258,35773
1747907677143.094,258,35737
1747907677144.094,258,35695
1747907677145.094,258,35661
1747907677146.094,258,35628
1747907677147.094,259,35601
1747907677148.094,259,35590
1747907677149.094,259,35598
1747907677150.094,259,35609
1747907677150.969,259,35623
1747907677151.969,259,35637
1747907677152.969,259,35649
1747907677153.969,259,35663
1747907677154.969,259,35692
1747907677155.969,259,35726
1747907677156.969,259,35750
1747907677157.969,260,35771
1747907677158.969,260,35777
1747907677159.969,260,35777
1747907677160.969,260,35765
1747907677161.969,260,35743
1747907677162.969,260,35696
1747907677163.969,260,35655
1747907677164.969,260,35623
1747907677165.969,260,35605
1747907677166.844,260,35593
1747907677167.844,260,35591
1747907677168.844,261,35602
1747907677169.844,261,35630
1747907677170.844,261,35654
1747907677171.844,261,35685
1747907677172.844,261,35696
1747907677173.844,261,35700
1747907677174.844,261,35704
1747907677175.844,261,35703
1747907677176.844,261,35692
1747907677177.844,261,35663
1747907677178.844,261,35627
1747907677179.844,262,35579
1747907677180.844,262,35537
1747907677181.844,262,35511
1747907677182.719,262,35502
1747907677183.719,262,35486
1747907677184.719,262,35473
1747907677185.719,262,35476
1747907677186.719,262,35489
1747907677187.719,262,35522
1747907677188.719,262,35546
1747907677189.719,262,35579
1747907677190.719,263,35614
1747907677191.719,263,35639
1747907677192.719,263,35657
1747907677193.719,263,35663
1747907677194.719,263,35668
1747907677195.719,263,35664
1747907677196.719,263,35660
1747907677197.719,263,35643
1747907677198.594,263,35630
1747907677199.594,263,35620
1747907677200.594,263,35615
1747907677201.594,264,35623
1747907677202.594,264,35625
1747907677203.594,264,35623
1747907677204.594,264,35631
1747907677205.594,264,35639
1747907677206.594,264,35648
1747907677207.594,264,35653
1747907677208.594,264,35658
1747907677209.594,264,35641
1747907677210.594,264,35621
1747907677211.594,264,35602
1747907677212.594,265,35570
1747907677213.594,265,35542
1747907677214.5,265,35516
1747907677215.5,265,35493
1747907677216.5,265,35478
1747907677217.5,265,35469
1747907677218.5,265,35466
1747907677219.5,265,35470
1747907677220.5,265,35475
1747907677221.5,265,35477
1747907677222.5,265,35482
1747907677223.5,266,35481
1747907677224.5,266,35481
1747907677225.5,266,35475
1747907677226.5,266,35472
1747907677227.5,266,35468
1747907677228.5,266,35464
1747907677229.5,266,35459
1747907677230.375,266,35455
1747907677231.375,266,35452
1747907677232.375,266,35452
1747907677233.375,266,35453
1747907677234.375,267,35459
1747907677235.375,267,35468
1747907677236.375,267,35483
1747907677237.375,267,35496
1747907677238.375,267,35511
1747907677239.375,267,35515
1747907677240.375,267,35514
1747907677241.375,267,35501
1747907677242.375,267,35467
1747907677243.375,267,35439
1747907677244.375,267,35420
1747907677245.375,268,35408
1747907677246.281,268,35407
1747907677247.281,268,35406
1747907677248.281,268,35407
1747907677249.281,268,35420
1747907677250.281,268,35445
1747907677251.281,268,35467
1747907677252.281,268,35483
1747907677253.281,268,35497
1747907677254.281,268,35506
1747907677255.281,268,35509
1747907677256.281,269,35507
1747907677257.281,269,35493
1747907677258.281,269,35470
1747907677259.281,269,35447
1747907677260.281,269,35419
1747907677261.281,269,35400
1747907677262.156,269,35376
1747907677263.156,269,35360
1747907677264.156,269,35349
1747907677265.156,269,35360
1747907677266.156,269,35372
1747907677267.156,270,35377
1747907677268.156,270,35385
1747907677269.156,270,35379
1747907677270.156,270,35376
1747907677271.156,270,35391
1747907677272.156,270,35393
1747907677273.156,270,35367
1747907677274.156,270,35322
1747907677275.156,270,35285
1747907677276.156,270,35254
1747907677277.156,270,35255
1747907677278.031,271,35273
1747907677279.031,271,35291
1747907677280.031,271,35308
1747907677281.031,271,35320
1747907677282.031,271,35330
1747907677283.031,271,35338
1747907677284.031,271,35335
1747907677285.031,271,35323
1747907677286.031,271,35316
1747907677287.031,271,35310
1747907677288.031,271,35307
1747907677289.031,272,35295
1747907677290.031,272,35289
1747907677291.0308,272,35281
1747907677292.031,272,35265
1747907677293.031,272,35229
1747907677293.937,272,35193
1747907677294.938,272,35170
1747907677295.937,272,35147
1747907677296.938,272,35131
1747907677297.937,272,35122
1747907677298.938,272,35135
1747907677299.937,273,35161
1747907677300.937,273,35185
1747907677301.938,273,35215
1747907677302.937,273,35246
1747907677303.938,273,35269
1747907677304.9368,273,35273
1747907677305.938,273,35262
1747907677306.937,273,35245
1747907677307.938,273,35224
1747907677308.937,273,35208
1747907677309.813,273,35188
1747907677310.812,274,35162
1747907677311.812,274,35136
1747907677312.813,274,35113
1747907677313.812,274,35098
1747907677314.813,274,35103
1747907677315.812,274,35105
1747907677316.813,274,35114
1747907677317.812,274,35116
1747907677318.813,274,35109
1747907677319.812,274,35103
1747907677320.813,274,35089
1747907677321.812,275,35068
1747907677322.813,275,35051
1747907677323.812,275,35026
1747907677324.813,275,35014
1747907677325.7192,275,34996
1747907677326.719,275,34973
1747907677327.719,275,34957
1747907677328.719,275,34967
1747907677329.719,275,34984
1747907677330.719,275,34999
1747907677331.719,275,35018
1747907677332.719,276,35032
1747907677333.719,276,35048
1747907677334.719,276,35062
1747907677335.719,276,35069
1747907677336.719,276,35062
1747907677337.719,276,35053
1747907677338.719,276,35046
1747907677339.719,276,35057
1747907677340.719,276,35075
1747907677341.594,276,35079
1747907677342.594,276,35076
1747907677343.594,277,35061
1747907677344.594,277,35048
1747907677345.594,277,35041
1747907677346.594,277,35040
1747907677347.594,277,35039
1747907677348.594,277,35026
1747907677349.5942,277,35018
1747907677350.594,277,35005
1747907677351.594,277,34984
1747907677352.594,277,34953
1747907677353.594,277,34925
1747907677354.594,278,34906
1747907677355.594,278,34917
1747907677356.594,278,34937
1747907677357.469,278,34957
1747907677358.469,278,34979
1747907677359.469,278,35003
1747907677360.469,278,35035
1747907677361.469,278,35076
1747907677362.469,278,35125
1747907677363.469,278,35163
1747907677364.469,278,35189
1747907677365.469,279,35215
1747907677366.469,279,35232
1747907677367.469,279,35241
1747907677368.469,279,35238
1747907677369.469,279,35237
1747907677370.469,279,35238
1747907677371.469,279,35251
1747907677372.469,279,35273
1747907677373.375,279,35293
1747907677374.375,279,35318
1747907677375.375,279,35369
1747907677376.375,280,35421
1747907677377.375,280,35486
1747907677378.375,280,35535
1747907677379.375,280,35569
1747907677380.375,280,35595
1747907677381.375,280,35623
1747907677382.375,280,35649
1747907677383.375,280,35697
1747907677384.375,280,35754
1747907677385.375,280,35802
1747907677386.375,280,35830
1747907677387.375,281,35845
1747907677388.375,281,35852
1747907677389.25,281,35860
1747907677390.25,281,35866
1747907677391.25,281,35847
1747907677392.25,281,35829
1747907677393.25,281,35816
1747907677394.25,281,35794
1747907677395.25,281,35765
1747907677396.25,281,35737
1747907677397.25,281,35698
1747907677398.25,282,35648
1747907677399.25,282,35592
1747907677400.25,282,35527
1747907677401.25,282,35467
1747907677402.25,282,35400
1747907677403.25,282,35334
1747907677404.25,282,35267
1747907677405.156,282,35192
1747907677406.156,282,35105
1747907677407.156,282,35024
1747907677408.156,282,34953
1747907677409.156,283,34882
1747907677410.156,283,34801
1747907677411.156,283,34715
1747907677412.156,283,34641
1747907677413.156,283,34572
1747907677414.156,283,34523
1747907677415.156,283,34498
1747907677416.156,283,34486
1747907677417.156,283,34489
1747907677418.156,283,34489
1747907677419.156,283,34487
1747907677420.156,284,34483
1747907677421.031,284,34479
1747907677422.031,284,34486
1747907677423.031,284,34490
1747907677424.031,284,34514
1747907677425.031,284,34542
1747907677426.031,284,34559
1747907677427.031,284,34571
1747907677428.031,284,34592
1747907677429.031,284,34612
1747907677430.031,284,34635
1747907677431.031,285,34656
1747907677432.031,285,34659
1747907677433.031,285,34627
1747907677434.031,285,34601
1747907677435.031,285,34581
1747907677436.031,285,34590
1747907677436.906,285,34637
1747907677437.906,285,34677
1747907677438.906,285,34702
1747907677439.9058,285,34717
1747907677440.906,285,34735
1747907677441.906,286,34750
1747907677442.906,286,34748
1747907677443.906,286,34750
1747907677444.906,286,34744
1747907677445.906,286,34739
1747907677446.906,286,34734
1747907677447.906,286,34718
1747907677448.906,286,34695
1747907677449.906,286,34668
1747907677450.906,286,34647
1747907677451.906,286,34627
1747907677452.812,287,34621
1747907677453.813,287,34632
1747907677454.813,287,34644
1747907677455.812,287,34651
1747907677456.813,287,34659
1747907677457.812,287,34668
1747907677458.813,287,34676
1747907677459.812,287,34678
1747907677460.813,287,34688
1747907677461.812,287,34681
1747907677462.813,287,34664
1747907677463.812,288,34633
1747907677464.813,288,34597
1747907677465.812,288,34575
1747907677466.813,288,34561
1747907677467.812,288,34548
1747907677468.687,288,34539
1747907677469.688,288,34537
1747907677470.687,288,34545
1747907677471.688,288,34563
1747907677472.687,288,34588
1747907677473.688,288,34618
1747907677474.687,289,34636
1747907677475.688,289,34642
1747907677476.687,289,34621
1747907677477.688,289,34585
1747907677478.687,289,34547
1747907677479.688,289,34500
1747907677480.687,289,34438
1747907677481.688,289,34399
1747907677482.687,289,34395
1747907677483.687,289,34423
1747907677484.594,289,34457
1747907677485.594,290,34489
1747907677486.594,290,34524
1747907677487.594,290,34556
1747907677488.594,290,34591
1747907677489.594,290,34620
1747907677490.594,290,34649
1747907677491.594,290,34673
1747907677492.594,290,34679
1747907677493.594,290,34663
1747907677494.594,290,34644
1747907677495.594,290,34633
1747907677496.594,291,34626
1747907677497.5942,291,34625
1747907677498.594,291,34630
1747907677499.594,291,34627
1747907677500.469,291,34609
1747907677501.469,291,34599
1747907677502.469,291,34586
1747907677503.469,291,34576
1747907677504.469,291,34573
1747907677505.469,291,34576
1747907677506.469,291,34583
1747907677507.469,292,34584
1747907677508.469,292,34589
1747907677509.469,292,34596
1747907677510.469,292,34597
1747907677511.469,292,34590
1747907677512.469,292,34578
1747907677513.469,292,34581
1747907677514.469,292,34581
1747907677515.469,292,34575
1747907677516.344,292,34565
1747907677517.344,292,34573
1747907677518.344,293,34593
1747907677519.344,293,34621
1747907677520.344,293,34665
1747907677521.344,293,34704
1747907677522.344,293,34721
1747907677523.344,293,34721
1747907677524.344,293,34715
1747907677525.344,293,34706
1747907677526.344,293,34692
1747907677527.344,293,34668
1747907677528.344,293,34651
1747907677529.344,294,34653
1747907677530.344,294,34652
1747907677531.344,294,34656
1747907677532.219,294,34659
1747907677533.219,294,34665
1747907677534.219,294,34669
1747907677535.219,294,34672
1747907677536.219,294,34683
1747907677537.219,294,34681
1747907677538.219,294,34669
1747907677539.219,294,34653
1747907677540.219,295,34639
1747907677541.219,295,34626
1747907677542.219,295,34626
1747907677543.219,295,34617
1747907677544.219,295,34599
1747907677545.219,295,34588
1747907677546.219,295,34586
1747907677547.219,295,34587
1747907677548.125,295,34594
1747907677549.125,295,34607
1747907677550.125,295,34614
1747907677551.125,296,34626
1747907677552.125,296,34639
1747907677553.125,296,34657
1747907677554.125,296,34665
1747907677555.125,296,34669
1747907677556.125,296,34665
1747907677557.125,296,34666
1747907677558.125,296,34690
1747907677559.125,296,34698
1747907677560.125,296,34675
1747907677561.125,296,34644
1747907677562.125,297,34620
1747907677563.125,297,34605
1747907677564.031,297,34592
1747907677565.031,297,34569
1747907677566.031,297,34538
1747907677567.031,297,34534
1747907677568.031,297,34555
1747907677569.031,297,34592
1747907677570.031,297,34632
1747907677571.031,297,34666
1747907677572.031,297,34688
1747907677573.031,298,34702
1747907677574.031,298,34712
1747907677575.031,298,34708
1747907677576.031,298,34690
1747907677577.031,298,34671
1747907677578.031,298,34662
1747907677579.031,298,34645
1747907677579.906,298,34631
1747907677580.906,298,34614
1747907677581.906,298,34597
1747907677582.906,298,34589
1747907677583.906,299,34586
1747907677584.906,299,34588
1747907677585.906,299,34593
1747907677586.906,299,34599
1747907677587.9058,299,34599
1747907677588.906,299,34599
1747907677589.906,299,34589
1747907677590.906,299,34564
1747907677591.906,299,34536
1747907677592.906,299,34506
1747907677593.906,299,34478
1747907677594.906,300,34450
1747907677595.781,300,34414
1747907677596.781,300,34369
1747907677597.781,300,34325
1747907677598.781,300,34303
1747907677599.781,300,34289
1747907677600.781,300,34280
1747907677601.781,300,34287
1747907677602.781,300,34312
1747907677603.781,300,34353
1747907677604.781,300,34382
1747907677605.781,301,34412
1747907677606.781,301,34424
1747907677607.781,301,34425
1747907677608.781,301,34413
1747907677609.781,301,34402
1747907677610.781,301,34390
1747907677611.656,301,34371
1747907677612.656,301,34355
1747907677613.656,301,34340
1747907677614.656,301,34337
1747907677615.656,301,34334
1747907677616.656,302,34338
1747907677617.656,302,34348
1747907677618.656,302,34353
1747907677619.656,302,34336
1747907677620.656,302,34320
1747907677621.656,302,34296
1747907677622.656,302,34264
1747907677623.656,302,34232
1747907677624.656,302,34203
1747907677625.656,302,34181
1747907677626.656,302,34171
1747907677627.531,303,34156
1747907677628.531,303,34150
1747907677629.531,303,34125
1747907677630.531,303,34100
1747907677631.531,303,34096
1747907677632.531,303,34104
1747907677633.531,303,34120
1747907677634.531,303,34135
1747907677635.531,303,34140
1747907677636.531,303,34140
1747907677637.531,303,34132
1747907677638.531,304,34121
1747907677639.531,304,34109
1747907677640.531,304,34097
1747907677641.531,304,34090
1747907677642.531,304,34085
1747907677643.406,304,34074
1747907677644.406,304,34067
1747907677645.406,304,34052
1747907677646.406,304,34043
1747907677647.406,304,34035
1747907677648.406,304,34040
1747907677649.406,305,34041
1747907677650.4058,305,34036
1747907677651.406,305,34023
1747907677652.406,305,34005
1747907677653.406,305,33990
1747907677654.406,305,33966
1747907677655.406,305,33930
1747907677656.406,305,33901
1747907677657.406,305,33889
1747907677658.406,305,33885
1747907677659.312,305,33875
1747907677660.312,306,33880
1747907677661.313,306,33886
1747907677662.312,306,33908
1747907677663.313,306,33933
1747907677664.3118,306,33953
1747907677665.313,306,33948
1747907677666.312,306,33941
1747907677667.313,306,33920
1747907677668.312,306,33895
1747907677669.313,306,33871
1747907677670.312,306,33843
1747907677671.313,307,33819
1747907677672.312,307,33799
1747907677673.313,307,33796
1747907677674.312,307,33777
1747907677675.187,307,33747
1747907677676.188,307,33723
1747907677677.187,307,33709
1747907677678.188,307,33719
1747907677679.187,307,33747
1747907677680.188,307,33769
1747907677681.187,307,33788
1747907677682.188,308,33801
1747907677683.187,308,33809
1747907677684.188,308,33818
1747907677685.187,308,33820
1747907677686.188,308,33816
1747907677687.187,308,33802
1747907677688.188,308,33790
1747907677689.188,308,33783
1747907677690.187,308,33770
1747907677691.125,308,33746
1747907677692.125,308,33716
1747907677693.125,309,33709
1747907677694.125,309,33725
1747907677695.125,309,33739
1747907677696.125,309,33751
1747907677697.125,309,33756
1747907677698.125,309,33760
1747907677699.125,309,33752
1747907677700.125,309,33753
1747907677701.125,309,33740
1747907677702.125,309,33719
1747907677703.125,309,33688
1747907677704.125,310,33664
1747907677705.125,310,33648
1747907677706.125,310,33648
1747907677706.969,310,33653
1747907677707.969,310,33654
1747907677708.9692,310,33650
1747907677709.969,310,33649
1747907677710.969,310,33670
1747907677711.969,310,33701
1747907677712.969,310,33728
1747907677713.969,310,33752
1747907677714.969,311,33752
1747907677715.969,311,33743
1747907677716.969,311,33725
1747907677717.969,311,33703
1747907677718.969,311,33688
1747907677719.969,311,33683
1747907677720.969,311,33680
1747907677721.969,311,33670
1747907677722.844,311,33660
1747907677723.844,311,33658
1747907677724.844,311,33658
1747907677725.844,312,33672
1747907677726.844,312,33680
1747907677727.844,312,33679
1747907677728.844,312,33675
1747907677729.844,312,33667
1747907677730.844,312,33665
1747907677731.844,312,33658
1747907677732.844,312,33648
1747907677733.844,312,33629
1747907677734.844,312,33596
1747907677735.844,312,33587
1747907677736.844,313,33587
1747907677737.844,313,33593
1747907677738.719,313,33593
1747907677739.719,313,33599
1747907677740.719,313,33598
1747907677741.719,313,33605
1747907677742.719,313,33618
1747907677743.719,313,33626
1747907677744.719,313,33633
1747907677745.719,313,33623
1747907677746.719,313,33595
1747907677747.719,314,33570
1747907677748.719,314,33551
1747907677749.719,314,33546
1747907677750.719,314,33541
1747907677751.719,314,33510
1747907677752.719,314,33453
1747907677753.719,314,33395
1747907677754.594,314,33364
1747907677755.594,314,33383
1747907677756.594,314,33426
1747907677757.594,314,33477
1747907677758.594,315,33524
1747907677759.594,315,33566
1747907677760.594,315,33601
1747907677761.594,315,33623
1747907677762.594,315,33625
1747907677763.594,315,33615
1747907677764.594,315,33603
1747907677765.594,315,33582
1747907677766.594,315,33571
1747907677767.594,315,33555
1747907677768.594,315,33542
1747907677769.594,316,33529
1747907677770.469,316,33517
1747907677771.4692,316,33519
1747907677772.469,316,33525
1747907677773.469,316,33538
1747907677774.469,316,33565
1747907677775.469,316,33609
1747907677776.469,316,33639
1747907677777.469,316,33656
1747907677778.469,316,33661
1747907677779.469,316,33663
1747907677780.469,317,33660
1747907677781.469,317,33647
1747907677782.469,317,33625
1747907677783.469,317,33594
1747907677784.469,317,33564
1747907677785.469,317,33537
1747907677786.375,317,33518
1747907677787.375,317,33505
1747907677788.375,317,33495
1747907677789.375,317,33486
1747907677790.375,317,33488
1747907677791.375,318,33492
1747907677792.375,318,33503
1747907677793.375,318,33527
1747907677794.375,318,33548
1747907677795.375,318,33568
1747907677796.375,318,33591
1747907677797.375,318,33593
1747907677798.375,318,33590
1747907677799.375,318,33575
1747907677800.375,318,33554
1747907677801.375,318,33531
1747907677802.25,319,33514
1747907677803.25,319,33481
1747907677804.25,319,33453
1747907677805.25,319,33448
1747907677806.25,319,33460
1747907677807.25,319,33472
1747907677808.25,319,33483
1747907677809.25,319,33496
1747907677810.25,319,33504
1747907677811.25,319,33498
1747907677812.25,319,33488
1747907677813.25,320,33489
1747907677814.25,320,33496
1747907677815.25,320,33507
1747907677816.25,320,33517
1747907677817.25,320,33512
1747907677818.125,320,33503
1747907677819.125,320,33484
1747907677820.125,320,33487
1747907677821.125,320,33504
1747907677822.125,320,33511
1747907677823.125,320,33504
1747907677824.125,321,33478
1747907677825.125,321,33445
1747907677826.125,321,33435
1747907677827.125,321,33443
1747907677828.125,321,33463
1747907677829.125,321,33471
1747907677830.125,321,33474
1747907677831.125,321,33475
1747907677832.125,321,33479
1747907677833.125,321,33483
1747907677834.0,321,33482
1747907677835.0,322,33478
1747907677836.0,322,33456
1747907677837.0,322,33439
1747907677838.0,322,33413
1747907677839.0,322,33396
1747907677840.0,322,33389
1747907677841.0,322,33377
1747907677842.0,322,33366
1747907677843.0,322,33360
1747907677844.0,322,33355
1747907677845.0,322,33350
1747907677846.0,323,33344
1747907677847.0,323,33344
1747907677848.0,323,33366
1747907677849.0,323,33390
1747907677849.875,323,33406
1747907677850.875,323,33426
1747907677851.875,323,33435
1747907677852.875,323,33424
1747907677853.875,323,33395
1747907677854.875,323,33375
1747907677855.875,323,33397
1747907677856.875,324,33446
1747907677857.875,324,33495
1747907677858.875,324,33518
1747907677859.875,324,33515
1747907677860.875,324,33497
1747907677861.875,324,33465
1747907677862.875,324,33433
1747907677863.875,324,33406
1747907677864.875,324,33389
1747907677865.781,324,33374
1747907677866.781,324,33368
1747907677867.781,325,33364
1747907677868.781,325,33377
1747907677869.781,325,33394
1747907677870.781,325,33410
1747907677871.781,325,33425
1747907677872.781,325,33447
1747907677873.781,325,33452
1747907677874.781,325,33451
1747907677875.781,325,33442
1747907677876.781,325,33419
1747907677877.781,325,33395
1747907677878.781,326,33375
1747907677879.781,326,33369
1747907677880.781,326,33357
1747907677881.656,326,33342
1747907677882.656,326,33329
1747907677883.656,326,33323
1747907677884.656,326,33336
1747907677885.656,326,33348
1747907677886.656,326,33361
1747907677887.656,326,33357
1747907677888.656,326,33349
1747907677889.656,327,33337
1747907677890.656,327,33336
1747907677891.656,327,33331
1747907677892.656,327,33321
1747907677893.656,327,33313
1747907677894.656,327,33306
1747907677895.656,327,33313
1747907677896.656,327,33324
1747907677897.531,327,33338
1747907677898.531,327,33347
1747907677899.531,327,33353
1747907677900.531,328,33358
1747907677901.531,328,33365
1747907677902.531,328,33375
1747907677903.531,328,33377
1747907677904.531,328,33375
1747907677905.531,328,33363
1747907677906.531,328,33353
1747907677907.531,328,33346
1747907677908.531,328,33334
1747907677909.531,328,33321
1747907677910.531,328,33323
1747907677911.531,329,33326
1747907677912.531,329,33329
1747907677913.406,329,33329
1747907677914.406,329,33337
1747907677915.406,329,33347
1747907677916.406,329,33377
1747907677917.406,329,33409
1747907677918.406,329,33439
1747907677919.406,329,33460
1747907677920.406,329,33460
1747907677921.406,329,33445
1747907677922.406,330,33422
1747907677923.406,330,33391
1747907677924.406,330,33349
1747907677925.406,330,33315
1747907677926.406,330,33291
1747907677927.406,330,33271
1747907677928.406,330,33259
1747907677929.281,330,33261
1747907677930.281,330,33273
1747907677931.281,330,33297
1747907677932.281,330,33325
1747907677933.281,331,33355
1747907677934.281,331,33374
1747907677935.281,331,33383
1747907677936.281,331,33384
1747907677937.281,331,33379
1747907677938.281,331,33371
1747907677939.281,331,33359
1747907677940.281,331,33347
1747907677941.281,331,33325
1747907677942.281,331,33313
1747907677943.281,331,33295
1747907677944.281,332,33288
1747907677945.188,332,33294
1747907677946.187,332,33287
1747907677947.188,332,33296
1747907677948.187,332,33304
1747907677949.188,332,33315
1747907677950.187,332,33310
1747907677951.188,332,33300
1747907677952.187,332,33279
1747907677953.188,332,33248
1747907677954.187,332,33223
1747907677955.188,333,33224
1747907677956.187,333,33240
1747907677957.187,333,33252
1747907677958.188,333,33257
1747907677959.187,333,33252
1747907677960.188,333,33233
1747907677961.094,333,33202
1747907677962.094,333,33167
1747907677963.094,333,33160
1747907677964.094,333,33178
1747907677965.094,333,33193
1747907677966.094,334,33213
1747907677967.094,334,33233
1747907677968.094,334,33239
1747907677969.094,334,33248
1747907677970.094,334,33249
1747907677971.094,334,33239
1747907677972.094,334,33215
1747907677973.094,334,33178
1747907677974.094,334,33148
1747907677975.094,334,33133
1747907677976.094,334,33122
1747907677976.938,335,33102
1747907677977.937,335,33091
1747907677978.937,335,33094
1747907677979.938,335,33106
1747907677980.937,335,33109
1747907677981.938,335,33101
1747907677982.937,335,33091
1747907677983.938,335,33070
1747907677984.937,335,33061
1747907677985.938,335,33072
1747907677986.937,335,33090
1747907677987.938,336,33101
1747907677988.937,336,33107
1747907677989.938,336,33113
1747907677990.937,336,33129
1747907677991.9382,336,33146
1747907677992.813,336,33152
1747907677993.812,336,33151
1747907677994.813,336,33144
1747907677995.812,336,33148
1747907677996.813,336,33145
1747907677997.812,336,33141
1747907677998.813,337,33133
1747907677999.8118,337,33122
1747907678000.813,337,33102
1747907678001.812,337,33097
1747907678002.813,337,33097
1747907678003.812,337,33095
1747907678004.813,337,33095
1747907678005.812,337,33093
1747907678006.813,337,33077
1747907678007.812,337,33037
1747907678008.687,337,32991
1747907678009.688,338,32957
1747907678010.687,338,32968
1747907678011.688,338,32998
1747907678012.687,338,33031
1747907678013.688,338,33059
1747907678014.687,338,33099
1747907678015.688,338,33131
1747907678016.687,338,33155
1747907678017.688,338,33151
1747907678018.687,338,33144
1747907678019.687,338,33116
1747907678020.688,339,33078
1747907678021.687,339,33048
1747907678022.688,339,33019
1747907678023.6868,339,33007
1747907678024.563,339,33006
1747907678025.562,339,33017
1747907678026.563,339,33031
1747907678027.562,339,33052
1747907678028.563,339,33075
1747907678029.562,339,33089
1747907678030.562,339,33099
1747907678031.563,340,33105
1747907678032.562,340,33108
1747907678033.563,340,33118
1747907678034.562,340,33141
1747907678035.563,340,33165
1747907678036.562,340,33177
1747907678037.563,340,33195
1747907678038.562,340,33209
1747907678039.563,340,33229
1747907678040.437,340,33239
1747907678041.437,340,33268
1747907678042.438,341,33300
1747907678043.437,341,33341
1747907678044.438,341,33396
1747907678045.437,341,33454
1747907678046.438,341,33514
1747907678047.437,341,33563
1747907678048.438,341,33607
1747907678049.437,341,33643
1747907678050.438,341,33686
1747907678051.437,341,33731
1747907678052.438,341,33768
1747907678053.437,342,33805
1747907678054.4382,342,33838
1747907678055.437,342,33869
1747907678056.312,342,33888
1747907678057.313,342,33919
1747907678058.312,342,33957
1747907678059.313,342,34020
1747907678060.312,342,34096
1747907678061.313,342,34161
1747907678062.3118,342,34192
1747907678063.313,342,34199
1747907678064.312,343,34186
1747907678065.313,343,34152
1747907678066.312,343,34106
1747907678067.313,343,34039
1747907678068.312,343,33965
1747907678069.313,343,33885
1747907678070.312,343,33815
1747907678071.312,343,33746
1747907678072.219,343,33677
1747907678073.219,343,33616
1747907678074.219,343,33563
1747907678075.219,344,33525
1747907678076.219,344,33489
1747907678077.219,344,33445
1747907678078.219,344,33400
1747907678079.219,344,33350
1747907678080.219,344,33287
1747907678081.219,344,33209
1747907678082.219,344,33125
1747907678083.219,344,33036
1747907678084.219,344,32941
1747907678085.219,344,32846
1747907678086.219,345,32749
1747907678087.219,345,32663
1747907678088.062,345,32593
1747907678089.063,345,32555
1747907678090.062,345,32550
1747907678091.063,345,32559
1747907678092.062,345,32577
1747907678093.062,345,32604
1747907678094.063,345,32646
1747907678095.062,345,32707
1747907678096.063,345,32773
1747907678097.062,346,32837
1747907678098.063,346,32879
1747907678099.062,346,32894
1747907678100.063,346,32895
1747907678101.062,346,32889
1747907678102.063,346,32887
1747907678103.062,346,32882
1747907678103.969,346,32879
1747907678104.969,346,32874
1747907678105.969,346,32871
1747907678106.9692,346,32874
1747907678107.969,347,32893
1747907678108.969,347,32928
1747907678109.969,347,32951
1747907678110.969,347,32969
1747907678111.969,347,32988
1747907678112.969,347,33008
1747907678113.969,347,33019
1747907678114.969,347,33013
1747907678115.969,347,32995
1747907678116.969,347,32973
1747907678117.969,347,32947
1747907678118.969,348,32926
1747907678119.844,348,32906
1747907678120.844,348,32892
1747907678121.844,348,32881
1747907678122.844,348,32868
1747907678123.844,348,32845
1747907678124.844,348,32842
1747907678125.844,348,32843
1747907678126.844,348,32847
1747907678127.844,348,32849
1747907678128.844,348,32847
1747907678129.844,349,32849
1747907678130.8442,349,32840
1747907678131.844,349,32830
1747907678132.844,349,32829
1747907678133.844,349,32839
1747907678134.844,349,32847
1747907678135.719,349,32856
1747907678136.719,349,32864
1747907678137.719,349,32872
1747907678138.719,349,32892
1747907678139.719,349,32919
1747907678140.719,350,32945
1747907678141.719,350,32975
1747907678142.719,350,32997
1747907678143.719,350,33003
1747907678144.719,350,33009
1747907678145.719,350,33013
1747907678146.719,350,33016
1747907678147.719,350,33011
1747907678148.719,350,33007
1747907678149.719,350,33003
1747907678150.719,350,33000
1747907678151.594,351,32975
1747907678152.594,351,32958
1747907678153.594,351,32956
1747907678154.594,351,32963
1747907678155.594,351,32973
1747907678156.594,351,32987
1747907678157.594,351,32996
1747907678158.594,351,32996
1747907678159.594,351,32991
1747907678160.594,351,32976
1747907678161.594,351,32957
1747907678162.594,352,32925
1747907678163.594,352,32896
1747907678164.594,352,32871
1747907678165.594,352,32854
1747907678166.594,352,32844
1747907678167.469,352,32832
1747907678168.469,352,32815
1747907678169.4692,352,32799
1747907678170.469,352,32813
1747907678171.469,352,32845
1747907678172.469,352,32897
1747907678173.469,353,32944
1747907678174.469,353,32973
1747907678175.469,353,33001
1747907678176.469,353,33023
1747907678177.469,353,33032
1747907678178.469,353,33031
1747907678179.469,353,33025
1747907678180.469,353,33009
1747907678181.469,353,32975
1747907678182.469,353,32929
1747907678183.344,353,32894
1747907678184.344,354,32861
1747907678185.344,354,32845
1747907678186.344,354,32857
1747907678187.344,354,32896
1747907678188.344,354,32931
1747907678189.344,354,32950
1747907678190.344,354,32947
1747907678191.344,354,32931
1747907678192.344,354,32919
1747907678193.3442,354,32941
1747907678194.344,354,32975
1747907678195.344,355,33005
1747907678196.344,355,33027
1747907678197.344,355,33037
1747907678198.344,355,33049
1747907678199.219,355,33053
1747907678200.219,355,33046
1747907678201.219,355,33039
1747907678202.219,355,33040
1747907678203.219,355,33035
1747907678204.219,355,33029
1747907678205.219,355,33030
1747907678206.219,356,33023
1747907678207.219,356,33013
1747907678208.219,356,33007
1747907678209.219,356,33017
1747907678210.219,356,33033
1747907678211.219,356,33042
1747907678212.219,356,33041
1747907678213.219,356,33043
1747907678214.219,356,33037
1747907678215.094,356,33028
1747907678216.094,356,33020
1747907678217.094,357,33015
1747907678218.094,357,33019
1747907678219.094,357,33022
1747907678220.094,357,33024
1747907678221.094,357,33033
1747907678222.094,357,33045
1747907678223.094,357,33050
1747907678224.094,357,33053
1747907678225.094,357,33065
1747907678226.094,357,33055
1747907678227.094,357,33044
1747907678228.094,358,33043
1747907678229.094,358,33045
1747907678230.094,358,33051
1747907678231.063,358,33060
1747907678232.062,358,33062
1747907678233.063,358,33073
1747907678234.062,358,33076
1747907678235.063,358,33085
1747907678236.063,358,33091
1747907678237.062,358,33082
1747907678238.063,358,33067
1747907678239.062,359,33055
1747907678240.063,359,33047
1747907678241.062,359,33038
1747907678242.063,359,33019
1747907678243.062,359,32998
1747907678244.063,359,32984
1747907678245.062,359,32969
1747907678246.063,359,32967
1747907678246.875,359,32987
1747907678247.875,359,33016
1747907678248.875,359,33065
1747907678249.875,360,33115
1747907678250.875,360,33157
1747907678251.875,360,33190
1747907678252.875,360,33207
1747907678253.875,360,33210
1747907678254.875,360,33208
1747907678255.875,360,33191
1747907678256.875,360,33175
1747907678257.875,360,33147
1747907678258.875,360,33118
1747907678259.875,360,33085
1747907678260.875,361,33044
1747907678261.875,361,33005
1747907678262.781,361,32976
1747907678263.781,361,32967
1747907678264.781,361,32969
1747907678265.781,361,32985
1747907678266.781,361,33006
1747907678267.781,361,33019
1747907678268.781,361,33048
1747907678269.781,361,33073
1747907678270.781,361,33099
1747907678271.781,362,33106
1747907678272.781,362,33106
1747907678273.781,362,33114
1747907678274.781,362,33118
1747907678275.781,362,33106
1747907678276.781,362,33088
1747907678277.781,362,33065
1747907678278.656,362,33039
1747907678279.656,362,33015
1747907678280.656,362,33002
1747907678281.656,362,32992
1747907678282.656,363,32965
1747907678283.6558,363,32927
1747907678284.656,363,32895
1747907678285.656,363,32891
1747907678286.656,363,32888
1747907678287.656,363,32899
1747907678288.656,363,32918
1747907678289.656,363,32927
1747907678290.656,363,32942
1747907678291.656,363,32977
1747907678292.656,363,33007
1747907678293.656,364,33032
1747907678294.562,364,33020
1747907678295.563,364,33014
1747907678296.562,364,32995
1747907678297.563,364,32988
1747907678298.563,364,32988
1747907678299.562,364,32980
1747907678300.563,364,32966
1747907678301.562,364,32947
1747907678302.563,364,32934
1747907678303.562,364,32937
1747907678304.563,365,32953
1747907678305.562,365,32971
1747907678306.563,365,32971
1747907678307.562,365,32959
1747907678308.563,365,32937
1747907678309.562,365,32921
1747907678310.469,365,32912
1747907678311.469,365,32902
1747907678312.469,365,32888
1747907678313.469,365,32874
1747907678314.469,365,32862
1747907678315.469,366,32850
1747907678316.469,366,32834
1747907678317.469,366,32823
1747907678318.469,366,32820
1747907678319.469,366,32811
1747907678320.469,366,32809
1747907678321.469,366,32792
1747907678322.469,366,32770
1747907678323.469,366,32763
1747907678324.469,366,32757
1747907678325.469,366,32758
1747907678326.344,367,32762
1747907678327.344,367,32767
1747907678328.344,367,32772
1747907678329.344,367,32789
1747907678330.344,367,32818
1747907678331.344,367,32823
1747907678332.344,367,32815
1747907678333.344,367,32793
1747907678334.344,367,32774
1747907678335.344,367,32757
1747907678336.344,367,32749
1747907678337.344,368,32726
1747907678338.344,368,32701
1747907678339.344,368,32685
1747907678340.344,368,32658
1747907678341.3442,368,32623
1747907678342.219,368,32595
1747907678343.219,368,32560
1747907678344.219,368,32535
1747907678345.219,368,32531
1747907678346.219,368,32560
1747907678347.219,368,32603
1747907678348.219,369,32651
1747907678349.219,369,32696
1747907678350.219,369,32736
1747907678351.219,369,32762
1747907678352.219,369,32777
1747907678353.219,369,32782
1747907678354.219,369,32765
1747907678355.219,369,32747
1747907678356.219,369,32727
1747907678357.219,369,32709
1747907678358.125,369,32695
1747907678359.125,370,32675
1747907678360.125,370,32659
1747907678361.125,370,32651
1747907678362.125,370,32647
1747907678363.125,370,32651
1747907678364.125,370,32661
1747907678365.125,370,32667
1747907678366.125,370,32673
1747907678367.125,370,32678
1747907678368.125,370,32691
1747907678369.125,370,32703
1747907678370.125,371,32701
1747907678371.125,371,32689
1747907678372.125,371,32671
1747907678373.125,371,32655
1747907678374.031,371,32646
1747907678375.031,371,32645
1747907678376.031,371,32638
1747907678377.031,371,32633
1747907678378.031,371,32616
1747907678379.031,371,32591
1747907678380.031,371,32565
1747907678381.031,372,32554
1747907678382.031,372,32561
1747907678383.031,372,32571
1747907678384.031,372,32583
1747907678385.031,372,32592
1747907678386.031,372,32600
1747907678387.031,372,32614
1747907678388.031,372,32647
1747907678389.031,372,32680
1747907678389.937,372,32703
1747907678390.938,372,32708
1747907678391.937,373,32702
1747907678392.938,373,32701
1747907678393.937,373,32699
1747907678394.938,373,32697
1747907678395.937,373,32697
1747907678396.938,373,32711
1747907678397.937,373,32733
1747907678398.938,373,32763
1747907678399.937,373,32782
1747907678400.938,373,32788
1747907678401.937,373,32782
1747907678402.938,374,32776
1747907678403.937,374,32764
1747907678404.938,374,32745
1747907678405.781,374,32726
1747907678406.781,374,32714
1747907678407.781,374,32706
1747907678408.781,374,32701
1747907678409.781,374,32699
1747907678410.781,374,32702
1747907678411.781,374,32704
1747907678412.781,374,32712
1747907678413.781,375,32721
1747907678414.781,375,32727
1747907678415.781,375,32724
1747907678416.781,375,32714
1747907678417.781,375,32692
1747907678418.781,375,32676
1747907678419.781,375,32642
1747907678420.781,375,32604
1747907678421.6868,375,32555
1747907678422.688,375,32552
1747907678423.687,375,32565
1747907678424.688,376,32598
1747907678425.687,376,32651
1747907678426.688,376,32688
1747907678427.687,376,32709
1747907678428.688,376,32714
1747907678429.688,376,32714
1747907678430.687,376,32727
1747907678431.688,376,32749
1747907678432.687,376,32751
1747907678433.688,376,32743
1747907678434.687,376,32737
1747907678435.688,377,32728
1747907678436.687,377,32734
1747907678437.594,377,32754
1747907678438.594,377,32764
1747907678439.594,377,32776
1747907678440.594,377,32792
1747907678441.594,377,32806
1747907678442.594,377,32825
1747907678443.594,377,32839
1747907678444.594,377,32847
1747907678445.594,377,32851
1747907678446.594,378,32859
1747907678447.594,378,32869
1747907678448.594,378,32878
1747907678449.594,378,32883
1747907678450.594,378,32876
1747907678451.594,378,32864
1747907678452.594,378,32845
1747907678453.469,378,32825
1747907678454.469,378,32818
1747907678455.469,378,32822
1747907678456.469,378,32835
1747907678457.469,379,32858
1747907678458.469,379,32885
1747907678459.469,379,32895
1747907678460.469,379,32895
1747907678461.469,379,32895
1747907678462.469,379,32901
1747907678463.469,379,32888
1747907678464.469,379,32867
1747907678465.469,379,32833
1747907678466.469,379,32799
1747907678467.469,379,32782
1747907678468.469,380,32765
1747907678469.375,380,32760
1747907678470.375,380,32745
1747907678471.375,380,32733
1747907678472.375,380,32738
1747907678473.375,380,32747
1747907678474.375,380,32763
1747907678475.375,380,32767
1747907678476.375,380,32756
1747907678477.375,380,32749
1747907678478.375,380,32751
1747907678479.375,381,32766
1747907678480.375,381,32780
1747907678481.375,381,32794
1747907678482.375,381,32812
1747907678483.375,381,32806
1747907678484.375,381,32790
1747907678485.25,381,32763
1747907678486.25,381,32744
1747907678487.25,381,32744
1747907678488.25,381,32757
1747907678489.25,381,32783
1747907678490.25,382,32808
1747907678491.25,382,32829
1747907678492.25,382,32845
1747907678493.25,382,32846
1747907678494.25,382,32851
1747907678495.25,382,32848
1747907678496.25,382,32838
1747907678497.25,382,32822
1747907678498.25,382,32805
1747907678499.25,382,32787
1747907678500.25,382,32775
1747907678501.156,383,32749
1747907678502.156,383,32712
1747907678503.156,383,32667
1747907678504.156,383,32626
1747907678505.156,383,32589
1747907678506.156,383,32581
1747907678507.156,383,32603
1747907678508.156,383,32643
1747907678509.156,383,32690
1747907678510.156,383,32743
1747907678511.156,383,32783
1747907678512.156,384,32808
1747907678513.156,384,32819
1747907678514.156,384,32820
1747907678515.156,384,32820
1747907678516.156,384,32823
1747907678517.031,384,32824
1747907678518.0308,384,32821
1747907678519.031,384,32816
1747907678520.031,384,32811
1747907678521.031,384,32802
1747907678522.031,384,32790
1747907678523.031,385,32779
1747907678524.031,385,32765
1747907678525.031,385,32751
1747907678526.031,385,32737
1747907678527.031,385,32722
1747907678528.031,385,32703
1747907678529.031,385,32687
1747907678530.031,385,32675
1747907678531.031,385,32687
1747907678532.031,385,32698
1747907678532.906,385,32700
1747907678533.906,386,32693
1747907678534.906,386,32691
1747907678535.906,386,32707
1747907678536.906,386,32729
1747907678537.906,386,32750
1747907678538.906,386,32780
1747907678539.906,386,32805
1747907678540.906,386,32827
1747907678541.906,386,32821
1747907678542.906,386,32805
1747907678543.906,386,32789
1747907678544.906,387,32771
1747907678545.906,387,32743
1747907678546.906,387,32724
1747907678547.906,387,32703
1747907678548.781,387,32682
1747907678549.781,387,32667
1747907678550.781,387,32655
1747907678551.781,387,32655
1747907678552.781,387,32665
1747907678553.781,387,32680
1747907678554.781,387,32697
1747907678555.781,388,32699
1747907678556.781,388,32684
1747907678557.781,388,32685
1747907678558.781,388,32695
1747907678559.781,388,32691
1747907678560.781,388,32674
1747907678561.781,388,32644
1747907678562.781,388,32618
1747907678563.781,388,32602
1747907678564.656,388,32593
1747907678565.656,388,32595
1747907678566.656,389,32614
1747907678567.656,389,32642
1747907678568.656,389,32676
1747907678569.656,389,32726
1747907678570.656,389,32777
1747907678571.656,389,32806
1747907678572.656,389,32813
1747907678573.656,389,32813
1747907678574.656,389,32804
1747907678575.656,389,32773
1747907678576.656,389,32733
1747907678577.656,390,32694
1747907678578.656,390,32644
1747907678579.656,390,32612
1747907678580.5308,390,32589
1747907678581.531,390,32568
1747907678582.531,390,32550
1747907678583.531,390,32545
1747907678584.531,390,32551
1747907678585.531,390,32567
1747907678586.531,390,32592
1747907678587.531,390,32623
1747907678588.531,391,32649
1747907678589.531,391,32675
1747907678590.531,391,32691
1747907678591.531,391,32687
1747907678592.531,391,32671
1747907678593.531,391,32652
1747907678594.531,391,32640
1747907678595.531,391,32644
1747907678596.406,391,32642
1747907678597.406,391,32639
1747907678598.406,391,32632
1747907678599.406,392,32625
1747907678600.406,392,32616
1747907678601.406,392,32615
1747907678602.406,392,32612
1747907678603.406,392,32608
1747907678604.406,392,32606
1747907678605.406,392,32621
1747907678606.406,392,32646
1747907678607.406,392,32665
1747907678608.406,392,32663
1747907678609.406,392,32641
1747907678610.406,393,32618
1747907678611.406,393,32598
1747907678612.313,393,32604
1747907678613.312,393,32618
1747907678614.313,393,32631
1747907678615.312,393,32651
1747907678616.313,393,32667
1747907678617.312,393,32683
1747907678618.313,393,32692
1747907678619.312,393,32691
1747907678620.313,393,32682
1747907678621.312,394,32661
1747907678622.313,394,32643
1747907678623.312,394,32628
1747907678624.312,394,32617
1747907678625.313,394,32614
1747907678626.312,394,32645
1747907678627.313,394,32675
1747907678628.219,394,32694
1747907678629.219,394,32692
1747907678630.219,394,32671
1747907678631.219,394,32629
1747907678632.219,395,32605
1747907678633.219,395,32610
1747907678634.219,395,32643
