Biopac.acq
Graph Created on: 2025-06-12 11:39:41.009
Recording on: 2025-06-12 12:42:40.750
1 msec/sample
2 channels
PPG, X, PPGED-R
Volts
ECG, X, RSPEC-R
mV
min	CH1	CH9	
	546616 samples	546616 samples	
0	1.06049	0.0379944	
1.66667E-05	1.0498	0.0346375	
3.33333E-05	1.03943	0.0346375	
5E-05	1.02722	0.0369263	
6.66667E-05	1.01746	0.0370789	
8.33333E-05	1.00616	0.0366211	
0.0001	0.995789	0.035553	
0.000116667	0.986023	0.0323486	
0.000133333	0.974426	0.027771	
0.00015	0.96405	0.0253296	
0.000166667	0.954285	0.0227356	
0.000183333	0.944519	0.0222778	
0.0002	0.934143	0.0205994	
0.000216667	0.922852	0.0202942	
0.000233333	0.913086	0.0219727	
0.00025	0.90271	0.0257874	
0.000266667	0.891113	0.0294495	
0.000283333	0.880737	0.0274658	
0.0003	0.870972	0.0248718	
0.000316667	0.860901	0.0210571	
0.000333333	0.850525	0.0222778	
0.00035	0.839844	0.0273132	
0.000366667	0.829468	0.0292969	
0.000383333	0.821838	0.0296021	
0.0004	0.812073	0.0276184	
0.000416667	0.802307	0.0219727	
0.000433333	0.792236	0.0222778	
0.00045	0.783997	0.0283813	
0.000466667	0.776062	0.0308228	
0.000483333	0.768433	0.0244141	
0.0005	0.757446	0.0169373	
0.000516667	0.750427	0.0189209	
0.000533333	0.743103	0.0184631	
0.00055	0.735779	0.0180054	
0.000566667	0.728455	0.0218201	
0.000583333	0.720825	0.0248718	
0.0006	0.713501	0.0265503	
0.000616667	0.705872	0.0231934	
0.000633333	0.700378	0.0222778	
0.00065	0.693665	0.020752	
0.000666667	0.687866	0.0158691	
0.000683333	0.681458	0.0126648	
0.0007	0.674438	0.0170898	
0.000716667	0.668335	0.0219727	
0.000733333	0.663452	0.0245667	
0.00075	0.65918	0.0227356	
0.000766667	0.653992	0.0228882	
0.000783333	0.647278	0.0244141	
0.0008	0.643311	0.0234985	
0.000816667	0.640564	0.0195313	
0.000833333	0.634766	0.0178528	
0.00085	0.632019	0.0180054	
0.000866667	0.628357	0.0152588	
0.000883333	0.62561	0.0144958	
0.0009	0.623169	0.0160217	
0.000916667	0.621033	0.0151062	
0.000933333	0.618591	0.0112915	
0.00095	0.615845	0.012207	
0.000966667	0.613403	0.0151062	
0.000983333	0.610657	0.0170898	
0.001	0.610657	0.0175476	
0.00101667	0.609131	0.0178528	
0.00103333	0.608826	0.0152588	
0.00105	0.606079	0.0151062	
0.00106667	0.606689	0.0186157	
0.00108333	0.606689	0.0178528	
0.0011	0.606079	0.0161743	
0.00111667	0.60791	0.0154114	
0.00113333	0.60791	0.0170898	
0.00115	0.608826	0.0212097	
0.00116667	0.610046	0.019989	
0.00118333	0.610657	0.0183105	
0.0012	0.612183	0.0160217	
0.00121667	0.614624	0.0219727	
0.00123333	0.617371	0.0254822	
0.00125	0.617981	0.0230408	
0.00126667	0.621948	0.019989	
0.00128333	0.625	0.0201416	
0.0013	0.628357	0.0183105	
0.00131667	0.630188	0.0135803	
0.00133333	0.63385	0.0088501	
0.00135	0.637817	0.00808716	
0.00136667	0.642395	0.0117493	
0.00138333	0.646362	0.0166321	
0.0014	0.651245	0.0178528	
0.00141667	0.656433	0.0189209	
0.00143333	0.661316	0.0195313	
0.00145	0.666199	0.0158691	
0.00146667	0.673218	0.0177002	
0.00148333	0.678711	0.0192261	
0.0015	0.682678	0.0209045	
0.00151667	0.689087	0.0166321	
0.00153333	0.696411	0.0131226	
0.00155	0.701294	0.015564	
0.00156667	0.706482	0.0183105	
0.00158333	0.712585	0.0138855	
0.0016	0.718994	0.0151062	
0.00161667	0.724792	0.0128174	
0.00163333	0.731201	0.0134277	
0.00165	0.73761	0.0167847	
0.00166667	0.744019	0.0190735	
0.00168333	0.750122	0.0196838	
0.0017	0.756226	0.0180054	
0.00171667	0.761414	0.0196838	
0.00173333	0.767517	0.0175476	
0.00175	0.773621	0.017395	
0.00176667	0.779419	0.019989	
0.00178333	0.786133	0.0198364	
0.0018	0.791321	0.0158691	
0.00181667	0.796814	0.00778198	
0.00183333	0.802612	0.00762939	
0.00185	0.808105	0.0135803	
0.00186667	0.812988	0.0149536	
0.00188333	0.820313	0.0132751	
0.0019	0.825195	0.0143433	
0.00191667	0.830688	0.0144958	
0.00193333	0.835266	0.0128174	
0.00195	0.840454	0.0123596	
0.00196667	0.845642	0.018158	
0.00198333	0.851135	0.0218201	
0.002	0.857239	0.022583	
0.00201667	0.861206	0.0268555	
0.00203333	0.864563	0.0318909	
0.00205	0.869446	0.0346375	
0.00206667	0.873413	0.032959	
0.00208333	0.877686	0.0262451	
0.0021	0.880737	0.0248718	
0.00211667	0.884399	0.0254822	
0.00213333	0.888062	0.0291443	
0.00215	0.891113	0.0378418	
0.00216667	0.894775	0.0515747	
0.00218333	0.899048	0.0621033	
0.0022	0.901794	0.0662231	
0.00221667	0.904541	0.0666809	
0.00223333	0.909119	0.0686646	
0.00225	0.91156	0.0691223	
0.00226667	0.914001	0.0712585	
0.00228333	0.917358	0.0720215	
0.0023	0.919495	0.0700378	
0.00231667	0.921021	0.072937	
0.00233333	0.924072	0.0776672	
0.00235	0.925903	0.078125	
0.00236667	0.926819	0.0785828	
0.00238333	0.92865	0.0801086	
0.0024	0.930786	0.0810242	
0.00241667	0.932922	0.0814819	
0.00243333	0.933228	0.080719	
0.00245	0.934143	0.0767517	
0.00246667	0.93689	0.0767517	
0.00248333	0.936584	0.0738525	
0.0025	0.93689	0.0721741	
0.00251667	0.939331	0.0732422	
0.00253333	0.939331	0.0740051	
0.00255	0.939331	0.0741577	
0.00256667	0.939026	0.0721741	
0.00258333	0.93811	0.0712585	
0.0026	0.937805	0.0732422	
0.00261667	0.93689	0.0692749	
0.00263333	0.935059	0.0712585	
0.00265	0.932617	0.0769043	
0.00266667	0.931091	0.0784302	
0.00268333	0.927124	0.0788879	
0.0027	0.925598	0.0823975	
0.00271667	0.923462	0.0793457	
0.00273333	0.919495	0.0746155	
0.00275	0.915833	0.0738525	
0.00276667	0.912476	0.0773621	
0.00278333	0.91095	0.0801086	
0.0028	0.906372	0.0805664	
0.00281667	0.903625	0.0775146	
0.00283333	0.899048	0.0714111	
0.00285	0.894775	0.0631714	
0.00286667	0.891418	0.0563049	
0.00288333	0.886841	0.0524902	
0.0029	0.882263	0.0515747	
0.00291667	0.876465	0.04776	
0.00293333	0.873108	0.0428772	
0.00295	0.869751	0.0398254	
0.00296667	0.864258	0.0421143	
0.00298333	0.860596	0.0483704	
0.003	0.856018	0.0512695	
0.00301667	0.850525	0.0515747	
0.00303333	0.843201	0.0509644	
0.00305	0.838013	0.0479126	
0.00306667	0.831604	0.0444031	
0.00308333	0.826416	0.0437927	
0.0031	0.821228	0.0465393	
0.00311667	0.81604	0.0506592	
0.00313333	0.809021	0.0550842	
0.00315	0.804749	0.0564575	
0.00316667	0.79834	0.050354	
0.00318333	0.792236	0.0454712	
0.0032	0.786133	0.045929	
0.00321667	0.781555	0.0448608	
0.00323333	0.776367	0.039978	
0.00325	0.768738	0.0393677	
0.00326667	0.762939	0.0480652	
0.00328333	0.756531	0.0601196	
0.0033	0.750732	0.0650024	
0.00331667	0.742493	0.0639343	
0.00333333	0.736694	0.0654602	
0.00335	0.72998	0.0650024	
0.00336667	0.725098	0.0636292	
0.00338333	0.717773	0.0595093	
0.0034	0.710754	0.052948	
0.00341667	0.705566	0.0474548	
0.00343333	0.698547	0.0468445	
0.00345	0.691223	0.0483704	
0.00346667	0.68512	0.0553894	
0.00348333	0.678711	0.0628662	
0.0035	0.671387	0.062561	
0.00351667	0.663757	0.0614929	
0.00353333	0.657349	0.0540161	
0.00355	0.649719	0.0558472	
0.00356667	0.643005	0.0588989	
0.00358333	0.635071	0.06073	
0.0036	0.629578	0.0627136	
0.00361667	0.622253	0.059967	
0.00363333	0.614624	0.0569153	
0.00365	0.609131	0.0549316	
0.00366667	0.602722	0.0543213	
0.00368333	0.595093	0.0576782	
0.0037	0.588989	0.0566101	
0.00371667	0.582581	0.0544739	
0.00373333	0.575562	0.0541687	
0.00375	0.568542	0.0561523	
0.00376667	0.561218	0.059967	
0.00378333	0.553589	0.0621033	
0.0038	0.54718	0.0588989	
0.00381667	0.541077	0.0526428	
0.00383333	0.534058	0.0494385	
0.00385	0.528564	0.0471497	
0.00386667	0.522156	0.0492859	
0.00388333	0.514526	0.0492859	
0.0039	0.508118	0.0476074	
0.00391667	0.501709	0.0526428	
0.00393333	0.494995	0.057373	
0.00395	0.487976	0.0575256	
0.00396667	0.480347	0.0588989	
0.00398333	0.472412	0.057373	
0.004	0.465698	0.0543213	
0.00401667	0.458984	0.0541687	
0.00403333	0.451965	0.0526428	
0.00405	0.444946	0.0517273	
0.00406667	0.437927	0.0550842	
0.00408333	0.430908	0.0561523	
0.0041	0.424194	0.0515747	
0.00411667	0.417786	0.0448608	
0.00413333	0.411072	0.0411987	
0.00415	0.403748	0.0415039	
0.00416667	0.399475	0.0454712	
0.00418333	0.392761	0.0460815	
0.0042	0.384827	0.0502014	
0.00421667	0.378113	0.0537109	
0.00423333	0.372009	0.0544739	
0.00425	0.366211	0.0567627	
0.00426667	0.359802	0.0561523	
0.00428333	0.352173	0.0563049	
0.0043	0.34668	0.0543213	
0.00431667	0.340881	0.0541687	
0.00433333	0.332947	0.0535583	
0.00435	0.326538	0.0559998	
0.00436667	0.32074	0.0590515	
0.00438333	0.313721	0.0610352	
0.0044	0.309143	0.0653076	
0.00441667	0.302124	0.0643921	
0.00443333	0.296021	0.0624084	
0.00445	0.289307	0.0613403	
0.00446667	0.283813	0.0617981	
0.00448333	0.276184	0.0601196	
0.0045	0.270996	0.06073	
0.00451667	0.264587	0.057373	
0.00453333	0.259094	0.0544739	
0.00455	0.252686	0.0561523	
0.00456667	0.246582	0.0602722	
0.00458333	0.241089	0.0605774	
0.0046	0.23468	0.0552368	
0.00461667	0.230103	0.0549316	
0.00463333	0.22522	0.0645447	
0.00465	0.217896	0.0686646	
0.00466667	0.212708	0.0669861	
0.00468333	0.205688	0.0645447	
0.0047	0.200195	0.0637817	
0.00471667	0.194092	0.0643921	
0.00473333	0.188293	0.0666809	
0.00475	0.181885	0.0704956	
0.00476667	0.176697	0.0737	
0.00478333	0.171814	0.0735474	
0.0048	0.166016	0.0691223	
0.00481667	0.158997	0.062561	
0.00483333	0.152893	0.0593567	
0.00485	0.146484	0.0610352	
0.00486667	0.141602	0.0624084	
0.00488333	0.135803	0.0617981	
0.0049	0.130615	0.063324	
0.00491667	0.124512	0.0640869	
0.00493333	0.119934	0.0622559	
0.00495	0.112305	0.0592041	
0.00496667	0.105896	0.0590515	
0.00498333	0.0994873	0.0567627	
0.005	0.0949097	0.0566101	
0.00501667	0.0878906	0.0584412	
0.00503333	0.0823975	0.063324	
0.00505	0.0769043	0.0694275	
0.00506667	0.0717163	0.0718689	
0.00508333	0.065918	0.0698853	
0.0051	0.0598145	0.0668335	
0.00511667	0.0546265	0.0642395	
0.00513333	0.0479126	0.0654602	
0.00515	0.0445557	0.0666809	
0.00516667	0.0369263	0.0691223	
0.00518333	0.0317383	0.0715637	
0.0052	0.0268555	0.0753784	
0.00521667	0.0219727	0.0804138	
0.00523333	0.0161743	0.0878906	
0.00525	0.0109863	0.0924683	
0.00526667	0.00488281	0.0924683	
0.00528333	-0.000305176	0.0933838	
0.0053	-0.00549316	0.093689	
0.00531667	-0.00976563	0.0987244	
0.00533333	-0.0146484	0.100555	
0.00535	-0.0198364	0.102997	
0.00536667	-0.0228882	0.104828	
0.00538333	-0.0268555	0.106964	
0.0054	-0.0320435	0.109711	
0.00541667	-0.0366211	0.113525	
0.00543333	-0.0421143	0.113678	
0.00545	-0.0463867	0.113068	
0.00546667	-0.0485229	0.11322	
0.00548333	-0.0543213	0.117188	
0.0055	-0.0595093	0.119781	
0.00551667	-0.062561	0.122375	
0.00553333	-0.0665283	0.118866	
0.00555	-0.0708008	0.118408	
0.00556667	-0.0750732	0.122223	
0.00558333	-0.078125	0.122833	
0.0056	-0.0830078	0.121155	
0.00561667	-0.088501	0.12207	
0.00563333	-0.0918579	0.127106	
0.00565	-0.0958252	0.132294	
0.00566667	-0.101318	0.137177	
0.00568333	-0.105591	0.142975	
0.0057	-0.108948	0.144653	
0.00571667	-0.11322	0.142517	
0.00573333	-0.117493	0.144501	
0.00575	-0.122986	0.149078	
0.00576667	-0.126343	0.149384	
0.00578333	-0.130005	0.147095	
0.0058	-0.134888	0.144806	
0.00581667	-0.139771	0.142059	
0.00583333	-0.144653	0.135956	
0.00585	-0.1474	0.133209	
0.00586667	-0.150452	0.130768	
0.00588333	-0.154724	0.128326	
0.0059	-0.159607	0.123291	
0.00591667	-0.164185	0.118866	
0.00593333	-0.166626	0.119781	
0.00595	-0.169983	0.112762	
0.00596667	-0.17395	0.102234	
0.00598333	-0.177307	0.0907898	
0.006	-0.181274	0.0773621	
0.00601667	-0.184937	0.0675964	
0.00603333	-0.187378	0.0660706	
0.00605	-0.191345	0.070343	
0.00606667	-0.194397	0.0767517	
0.00608333	-0.198059	0.080719	
0.0061	-0.201416	0.083313	
0.00611667	-0.204468	0.080719	
0.00613333	-0.20874	0.0765991	
0.00615	-0.211792	0.0718689	
0.00616667	-0.216064	0.0692749	
0.00618333	-0.218811	0.0668335	
0.0062	-0.222778	0.0605774	
0.00621667	-0.225525	0.0537109	
0.00623333	-0.229187	0.0518799	
0.00625	-0.231323	0.0500488	
0.00626667	-0.235596	0.0469971	
0.00628333	-0.238647	0.0447083	
0.0063	-0.240173	0.0427246	
0.00631667	-0.243835	0.0460815	
0.00633333	-0.247803	0.0476074	
0.00635	-0.248108	0.045166	
0.00636667	-0.252686	0.0424194	
0.00638333	-0.253906	0.0340271	
0.0064	-0.256348	0.0242615	
0.00641667	-0.260315	0.0205994	
0.00643333	-0.262451	0.0178528	
0.00645	-0.264893	0.0158691	
0.00646667	-0.267944	0.0187683	
0.00648333	-0.272522	0.0180054	
0.0065	-0.274963	0.0190735	
0.00651667	-0.277405	0.0186157	
0.00653333	-0.281067	0.0160217	
0.00655	-0.284424	0.0128174	
0.00656667	-0.288086	0.0144958	
0.00658333	-0.289612	0.0157166	
0.0066	-0.292664	0.0138855	
0.00661667	-0.296326	0.0149536	
0.00663333	-0.299683	0.0137329	
0.00665	-0.302429	0.01297	
0.00666667	-0.304871	0.0105286	
0.00668333	-0.308838	0.0120544	
0.0067	-0.31189	0.0163269	
0.00671667	-0.314941	0.020752	
0.00673333	-0.317688	0.0239563	
0.00675	-0.319519	0.0205994	
0.00676667	-0.32135	0.0138855	
0.00678333	-0.324707	0.01297	
0.0068	-0.326843	0.0166321	
0.00681667	-0.32959	0.0158691	
0.00683333	-0.332642	0.0132751	
0.00685	-0.333862	0.0106812	
0.00686667	-0.336304	0.0126648	
0.00688333	-0.33844	0.0163269	
0.0069	-0.340271	0.0190735	
0.00691667	-0.343018	0.0175476	
0.00693333	-0.344849	0.0151062	
0.00695	-0.348206	0.0120544	
0.00696667	-0.349426	0.0105286	
0.00698333	-0.352478	0.0119019	
0.007	-0.35614	0.00976563	
0.00701667	-0.358276	0.0140381	
0.00703333	-0.360413	0.0154114	
0.00705	-0.364075	0.0190735	
0.00706667	-0.365906	0.015564	
0.00708333	-0.368958	0.0151062	
0.0071	-0.371704	0.0131226	
0.00711667	-0.374146	0.0152588	
0.00713333	-0.376587	0.0152588	
0.00715	-0.379028	0.0135803	
0.00716667	-0.381165	0.00930786	
0.00718333	-0.384216	0.0062561	
0.0072	-0.386047	0.0135803	
0.00721667	-0.388794	0.0163269	
0.00723333	-0.39093	0.0195313	
0.00725	-0.393372	0.0244141	
0.00726667	-0.395203	0.0279236	
0.00728333	-0.397034	0.0279236	
0.0073	-0.401001	0.0300598	
0.00731667	-0.402832	0.0300598	
0.00733333	-0.404358	0.0259399	
0.00735	-0.405884	0.0230408	
0.00736667	-0.407715	0.0209045	
0.00738333	-0.410767	0.0213623	
0.0074	-0.413208	0.0183105	
0.00741667	-0.415039	0.0137329	
0.00743333	-0.41687	0.0088501	
0.00745	-0.419617	0.00778198	
0.00746667	-0.421143	0.00366211	
0.00748333	-0.422974	0.000762939	
0.0075	-0.425415	-0.00366211	
0.00751667	-0.426941	-0.010376	
0.00753333	-0.429382	-0.00183105	
0.00755	-0.431519	0.00900269	
0.00756667	-0.43457	0.00823975	
0.00758333	-0.435181	0.0012207	
0.0076	-0.436401	-0.0012207	
0.00761667	-0.439148	-0.00213623	
0.00763333	-0.440369	0.000915527	
0.00765	-0.442505	0.00701904	
0.00766667	-0.44342	0.0183105	
0.00768333	-0.444946	0.0346375	
0.0077	-0.446777	0.0563049	
0.00771667	-0.447083	0.0816345	
0.00773333	-0.449829	0.106506	
0.00775	-0.45166	0.123596	
0.00776667	-0.453186	0.146484	
0.00778333	-0.454712	0.178833	
0.0078	-0.457764	0.213013	
0.00781667	-0.458679	0.249481	
0.00783333	-0.4599	0.295563	
0.00785	-0.461426	0.341949	
0.00786667	-0.463867	0.387573	
0.00788333	-0.464783	0.430145	
0.0079	-0.466919	0.477905	
0.00791667	-0.46814	0.528107	
0.00793333	-0.46936	0.575714	
0.00795	-0.471802	0.623474	
0.00796667	-0.474854	0.669403	
0.00798333	-0.475464	0.713196	
0.008	-0.477905	0.756989	
0.00801667	-0.481262	0.793152	
0.00803333	-0.483398	0.823669	
0.00805	-0.48584	0.855103	
0.00806667	-0.487671	0.884399	
0.00808333	-0.489502	0.908966	
0.0081	-0.491943	0.929871	
0.00811667	-0.493774	0.944977	
0.00813333	-0.496216	0.941467	
0.00815	-0.497742	0.925598	
0.00816667	-0.499268	0.90332	
0.00818333	-0.500793	0.886841	
0.0082	-0.502625	0.87616	
0.00821667	-0.504761	0.860443	
0.00823333	-0.506592	0.84198	
0.00825	-0.509033	0.804443	
0.00826667	-0.510559	0.748444	
0.00828333	-0.513306	0.692139	
0.0083	-0.515747	0.642395	
0.00831667	-0.517578	0.589752	
0.00833333	-0.52002	0.541382	
0.00835	-0.523376	0.504913	
0.00836667	-0.525513	0.48111	
0.00838333	-0.52887	0.462494	
0.0084	-0.532227	0.440063	
0.00841667	-0.534973	0.411835	
0.00843333	-0.538025	0.378571	
0.00845	-0.542603	0.343323	
0.00846667	-0.544128	0.304871	
0.00848333	-0.54718	0.273895	
0.0085	-0.548706	0.242767	
0.00851667	-0.552673	0.217743	
0.00853333	-0.55603	0.204926	
0.00855	-0.560608	0.19043	
0.00856667	-0.563354	0.175934	
0.00858333	-0.565491	0.166321	
0.0086	-0.569153	0.158691	
0.00861667	-0.571289	0.148926	
0.00863333	-0.57251	0.143127	
0.00865	-0.574036	0.146484	
0.00866667	-0.578613	0.147552	
0.00868333	-0.58136	0.143585	
0.0087	-0.582581	0.134583	
0.00871667	-0.585632	0.132599	
0.00873333	-0.588684	0.132751	
0.00875	-0.59082	0.130615	
0.00876667	-0.593262	0.126495	
0.00878333	-0.594788	0.127258	
0.0088	-0.597229	0.127411	
0.00881667	-0.59906	0.123444	
0.00883333	-0.602112	0.12085	
0.00885	-0.604858	0.11673	
0.00886667	-0.606689	0.107422	
0.00888333	-0.609436	0.101624	
0.0089	-0.611877	0.0990295	
0.00891667	-0.612793	0.0979614	
0.00893333	-0.615845	0.0924683	
0.00895	-0.618286	0.0866699	
0.00896667	-0.619202	0.0793457	
0.00898333	-0.621643	0.0765991	
0.009	-0.623474	0.0782776	
0.00901667	-0.626221	0.0805664	
0.00903333	-0.628052	0.0726318	
0.00905	-0.630493	0.065155	
0.00906667	-0.632629	0.0639343	
0.00908333	-0.63446	0.0621033	
0.0091	-0.638123	0.0592041	
0.00911667	-0.639038	0.0590515	
0.00913333	-0.642395	0.0592041	
0.00915	-0.6427	0.0613403	
0.00916667	-0.645447	0.0598145	
0.00918333	-0.647278	0.0570679	
0.0092	-0.649719	0.0585938	
0.00921667	-0.650635	0.0590515	
0.00923333	-0.653687	0.0610352	
0.00925	-0.655823	0.0637817	
0.00926667	-0.658264	0.0624084	
0.00928333	-0.661011	0.0614929	
0.0093	-0.663147	0.0553894	
0.00931667	-0.666199	0.0492859	
0.00933333	-0.666809	0.0502014	
0.00935	-0.669861	0.0517273	
0.00936667	-0.671082	0.0523376	
0.00938333	-0.673218	0.0505066	
0.0094	-0.675354	0.0526428	
0.00941667	-0.678101	0.0518799	
0.00943333	-0.679932	0.0505066	
0.00945	-0.681763	0.0556946	
0.00946667	-0.684814	0.0569153	
0.00948333	-0.686951	0.0552368	
0.0095	-0.687866	0.0502014	
0.00951667	-0.690308	0.0473022	
0.00953333	-0.692444	0.0468445	
0.00955	-0.694275	0.0471497	
0.00956667	-0.694885	0.0532532	
0.00958333	-0.696716	0.0662231	
0.0096	-0.699463	0.0708008	
0.00961667	-0.701294	0.0672913	
0.00963333	-0.701904	0.0646973	
0.00965	-0.704651	0.0634766	
0.00966667	-0.707092	0.0619507	
0.00968333	-0.709839	0.0636292	
0.0097	-0.711365	0.0689697	
0.00971667	-0.713806	0.0697327	
0.00973333	-0.715942	0.0671387	
0.00975	-0.718384	0.0621033	
0.00976667	-0.720825	0.0616455	
0.00978333	-0.723572	0.0621033	
0.0098	-0.724792	0.0656128	
0.00981667	-0.726013	0.0686646	
0.00983333	-0.729065	0.0648499	
0.00985	-0.733337	0.0598145	
0.00986667	-0.735168	0.0604248	
0.00988333	-0.736389	0.0592041	
0.0099	-0.739441	0.0587463	
0.00991667	-0.741272	0.0527954	
0.00993333	-0.743103	0.0456238	
0.00995	-0.744324	0.0419617	
0.00996667	-0.74646	0.0415039	
0.00998333	-0.747681	0.0457764	
0.01	-0.749512	0.0465393	
0.0100167	-0.751343	0.0466919	
0.0100333	-0.753784	0.0468445	
0.01005	-0.755615	0.0471497	
0.0100667	-0.758057	0.0492859	
0.0100833	-0.758972	0.0518799	
0.0101	-0.761414	0.0540161	
0.0101167	-0.76355	0.0523376	
0.0101333	-0.766296	0.0476074	
0.01015	-0.768127	0.0468445	
0.0101667	-0.770569	0.0468445	
0.0101833	-0.772705	0.0508118	
0.0102	-0.774841	0.052948	
0.0102167	-0.775757	0.0505066	
0.0102333	-0.778809	0.0531006	
0.01025	-0.780029	0.0532532	
0.0102667	-0.783386	0.0558472	
0.0102833	-0.785828	0.0570679	
0.0103	-0.787659	0.0570679	
0.0103167	-0.7901	0.0553894	
0.0103333	-0.792542	0.0582886	
0.01035	-0.792236	0.0611877	
0.0103667	-0.796814	0.0592041	
0.0103833	-0.797729	0.0590515	
0.0104	-0.800476	0.0590515	
0.0104167	-0.802307	0.0569153	
0.0104333	-0.805054	0.0552368	
0.01045	-0.80719	0.0585938	
0.0104667	-0.809326	0.0608826	
0.0104833	-0.811462	0.0567627	
0.0105	-0.813904	0.0564575	
0.0105167	-0.817261	0.0602722	
0.0105333	-0.819092	0.0616455	
0.01055	-0.821533	0.0614929	
0.0105667	-0.822449	0.0637817	
0.0105833	-0.826416	0.0616455	
0.0106	-0.829468	0.0578308	
0.0106167	-0.831299	0.0610352	
0.0106333	-0.834045	0.0619507	
0.01065	-0.835571	0.0639343	
0.0106667	-0.837097	0.0683594	
0.0106833	-0.840149	0.0727844	
0.0107	-0.84198	0.0756836	
0.0107167	-0.844421	0.0801086	
0.0107333	-0.848694	0.0810242	
0.01075	-0.848999	0.0784302	
0.0107667	-0.85144	0.0744629	
0.0107833	-0.856018	0.0701904	
0.0108	-0.857544	0.070343	
0.0108167	-0.858459	0.0714111	
0.0108333	-0.860596	0.0735474	
0.01085	-0.863037	0.0700378	
0.0108667	-0.865784	0.0723267	
0.0108833	-0.86853	0.0733948	
0.0109	-0.871277	0.0732422	
0.0109167	-0.873718	0.0727844	
0.0109333	-0.87677	0.0737	
0.01095	-0.880432	0.0741577	
0.0109667	-0.882874	0.0798035	
0.0109833	-0.886841	0.0811768	
0.011	-0.890198	0.0770569	
0.0110167	-0.892944	0.0720215	
0.0110333	-0.894775	0.0717163	
0.01105	-0.897217	0.0740051	
0.0110667	-0.900879	0.0733948	
0.0110833	-0.904846	0.0753784	
0.0111	-0.907288	0.0765991	
0.0111167	-0.910645	0.0782776	
0.0111333	-0.913391	0.0750732	
0.01115	-0.917664	0.0772095	
0.0111667	-0.919189	0.0804138	
0.0111833	-0.922546	0.085144	
0.0112	-0.924988	0.0860596	
0.0112167	-0.92804	0.0881958	
0.0112333	-0.928955	0.0906372	
0.01125	-0.932312	0.0942993	
0.0112667	-0.935059	0.0996399	
0.0112833	-0.9375	0.100708	
0.0113	-0.940247	0.0979614	
0.0113167	-0.941772	0.0958252	
0.0113333	-0.944824	0.0975037	
0.01135	-0.947876	0.0956726	
0.0113667	-0.950012	0.0949097	
0.0113833	-0.952148	0.0941467	
0.0114	-0.954895	0.0914001	
0.0114167	-0.957642	0.0895691	
0.0114333	-0.960693	0.0892639	
0.01145	-0.96405	0.088501	
0.0114667	-0.966492	0.0888062	
0.0114833	-0.968323	0.0924683	
0.0115	-0.971069	0.0950623	
0.0115167	-0.973511	0.0978088	
0.0115333	-0.975037	0.0994873	
0.01155	-0.978699	0.098877	
0.0115667	-0.980835	0.0944519	
0.0115833	-0.983887	0.0935364	
0.0116	-0.985107	0.0953674	
0.0116167	-0.986938	0.101624	
0.0116333	-0.98877	0.102844	
0.01165	-0.990906	0.103455	
0.0116667	-0.992737	0.105591	
0.0116833	-0.994568	0.107727	
0.0117	-0.995789	0.110474	
0.0117167	-0.99884	0.110779	
0.0117333	-0.999146	0.114746	
0.01175	-1.0022	0.119324	
0.0117667	-1.00342	0.124512	
0.0117833	-1.00403	0.125885	
0.0118	-1.00647	0.121155	
0.0118167	-1.00922	0.115662	
0.0118333	-1.01105	0.116882	
0.01185	-1.01105	0.114288	
0.0118667	-1.01349	0.11261	
0.0118833	-1.01624	0.117493	
0.0119	-1.01624	0.120087	
0.0119167	-1.01746	0.124359	
0.0119333	-1.01837	0.129089	
0.01195	-1.01898	0.128174	
0.0119667	-1.01868	0.121307	
0.0119833	-1.01807	0.121918	
0.012	-1.01837	0.12085	
0.0120167	-1.01837	0.122375	
0.0120333	-1.01837	0.126953	
0.01205	-1.01624	0.127716	
0.0120667	-1.0141	0.127411	
0.0120833	-1.01074	0.125122	
0.0121	-1.00861	0.122528	
0.0121167	-1.00464	0.124359	
0.0121333	-1.00067	0.125732	
0.01215	-0.994873	0.125275	
0.0121667	-0.988159	0.125275	
0.0121833	-0.982056	0.125427	
0.0122	-0.974426	0.122986	
0.0122167	-0.966797	0.125427	
0.0122333	-0.958557	0.125122	
0.01225	-0.947571	0.129242	
0.0122667	-0.937805	0.129852	
0.0122833	-0.925903	0.125275	
0.0123	-0.914001	0.127258	
0.0123167	-0.899658	0.130005	
0.0123333	-0.884705	0.130768	
0.01235	-0.867615	0.128174	
0.0123667	-0.85144	0.127258	
0.0123833	-0.833435	0.129547	
0.0124	-0.813599	0.127563	
0.0124167	-0.792847	0.119324	
0.0124333	-0.771179	0.109711	
0.01245	-0.747375	0.107727	
0.0124667	-0.722656	0.108032	
0.0124833	-0.698242	0.110626	
0.0125	-0.671692	0.112915	
0.0125167	-0.643005	0.110931	
0.0125333	-0.61554	0.106659	
0.01255	-0.582581	0.1091	
0.0125667	-0.552979	0.10788	
0.0125833	-0.518494	0.0997925	
0.0126	-0.482483	0.098114	
0.0126167	-0.446777	0.0997925	
0.0126333	-0.409546	0.100861	
0.01265	-0.370789	0.102997	
0.0126667	-0.330505	0.112762	
0.0126833	-0.288391	0.117493	
0.0127	-0.244446	0.11795	
0.0127167	-0.2005	0.117493	
0.0127333	-0.15625	0.113831	
0.01275	-0.109863	0.109253	
0.0127667	-0.0622559	0.106049	
0.0127833	-0.012207	0.103607	
0.0128	0.0363159	0.102539	
0.0128167	0.0863647	0.103607	
0.0128333	0.137939	0.105438	
0.01285	0.191345	0.106049	
0.0128667	0.243225	0.104065	
0.0128833	0.2948	0.104828	
0.0129	0.349731	0.107269	
0.0129167	0.404358	0.108032	
0.0129333	0.458984	0.102234	
0.01295	0.515747	0.100708	
0.0129667	0.570984	0.0987244	
0.0129833	0.627747	0.10025	
0.013	0.684204	0.106201	
0.0130167	0.739441	0.106506	
0.0130333	0.796509	0.104828	
0.01305	0.852356	0.101776	
0.0130667	0.906677	0.101013	
0.0130833	0.964355	0.0985718	
0.0131	1.01776	0.0982666	
0.0131167	1.07361	0.0982666	
0.0131333	1.12823	0.0976563	
0.01315	1.17981	0.0926208	
0.0131667	1.23413	0.0868225	
0.0131833	1.28662	0.0837708	
0.0132	1.33667	0.0872803	
0.0132167	1.38702	0.0942993	
0.0132333	1.43738	0.10025	
0.01325	1.48712	0.0968933	
0.0132667	1.5332	0.0993347	
0.0132833	1.57959	0.101013	
0.0133	1.62506	0.0953674	
0.0133167	1.67023	0.0932312	
0.0133333	1.71539	0.0935364	
0.01335	1.7569	0.0947571	
0.0133667	1.7984	0.0915527	
0.0133833	1.83929	0.0869751	
0.0134	1.87836	0.0856018	
0.0134167	1.91681	0.0820923	
0.0134333	1.95587	0.0816345	
0.01345	1.99097	0.0813293	
0.0134667	2.02667	0.0814819	
0.0134833	2.06116	0.0773621	
0.0135	2.0932	0.0788879	
0.0135167	2.12402	0.0796509	
0.0135333	2.15515	0.0769043	
0.01355	2.18292	0.0758362	
0.0135667	2.21008	0.0799561	
0.0135833	2.23694	0.0808716	
0.0136	2.26349	0.0827026	
0.0136167	2.28638	0.0837708	
0.0136333	2.30957	0.0856018	
0.01365	2.31567	0.0836182	
0.0136667	2.31567	0.0820923	
0.0136833	2.31567	0.0814819	
0.0137	2.31598	0.085144	
0.0137167	2.31567	0.0898743	
0.0137333	2.31598	0.0889587	
0.01375	2.31598	0.0862122	
0.0137667	2.31567	0.0881958	
0.0137833	2.31567	0.0918579	
0.0138	2.31537	0.0914001	
0.0138167	2.31537	0.0927734	
0.0138333	2.31476	0.0933838	
0.01385	2.31567	0.0927734	
0.0138667	2.31476	0.0894165	
0.0138833	2.31476	0.0848389	
0.0139	2.31445	0.0836182	
0.0139167	2.31506	0.0849915	
0.0139333	2.31445	0.0862122	
0.01395	2.31476	0.0881958	
0.0139667	2.31506	0.0883484	
0.0139833	2.31506	0.0904846	
0.014	2.31445	0.0886536	
0.0140167	2.31476	0.0906372	
0.0140333	2.31506	0.0907898	
0.01405	2.31506	0.0898743	
0.0140667	2.31476	0.088501	
0.0140833	2.31415	0.0921631	
0.0141	2.31476	0.0926208	
0.0141167	2.31354	0.0941467	
0.0141333	2.31384	0.0917053	
0.01415	2.31445	0.0869751	
0.0141667	2.31445	0.085907	
0.0141833	2.31384	0.0875854	
0.0142	2.31415	0.0900269	
0.0142167	2.31354	0.0927734	
0.0142333	2.31415	0.0953674	
0.01425	2.31384	0.0971985	
0.0142667	2.31354	0.0964355	
0.0142833	2.31354	0.0959778	
0.0143	2.31384	0.0935364	
0.0143167	2.31354	0.0914001	
0.0143333	2.31384	0.0944519	
0.01435	2.31384	0.0996399	
0.0143667	2.31354	0.105438	
0.0143833	2.31445	0.105591	
0.0144	2.31323	0.102081	
0.0144167	2.31384	0.0984192	
0.0144333	2.2818	0.0968933	
0.01445	2.26349	0.0979614	
0.0144667	2.24731	0.0946045	
0.0144833	2.23053	0.0973511	
0.0145	2.21466	0.101929	
0.0145167	2.19757	0.101013	
0.0145333	2.17957	0.0975037	
0.01455	2.16217	0.0944519	
0.0145667	2.146	0.0938416	
0.0145833	2.12891	0.0953674	
0.0146	2.1106	0.0920105	
0.0146167	2.0932	0.0953674	
0.0146333	2.0755	0.102692	
0.01465	2.0578	0.107574	
0.0146667	2.04041	0.105896	
0.0146833	2.02332	0.105591	
0.0147	2.00531	0.103912	
0.0147167	1.98608	0.103149	
0.0147333	1.96747	0.104523	
0.01475	1.95038	0.105438	
0.0147667	1.93268	0.105591	
0.0147833	1.91467	0.105133	
0.0148	1.89575	0.098877	
0.0148167	1.87775	0.0920105	
0.0148333	1.85883	0.0915527	
0.01485	1.84021	0.0939941	
0.0148667	1.82312	0.0952148	
0.0148833	1.80573	0.093689	
0.0149	1.78802	0.0952148	
0.0149167	1.76941	0.0978088	
0.0149333	1.75201	0.0971985	
0.01495	1.73431	0.098114	
0.0149667	1.71661	0.101624	
0.0149833	1.69159	0.103302	
0.015	1.67297	0.1091	
0.0150167	1.65649	0.110626	
0.0150333	1.6394	0.11261	
0.01505	1.62384	0.110168	
0.0150667	1.60583	0.10376	
0.0150833	1.58966	0.0949097	
0.0151	1.57135	0.0894165	
0.0151167	1.55548	0.091095	
0.0151333	1.53961	0.0930786	
0.01515	1.52252	0.0933838	
0.0151667	1.50635	0.0952148	
0.0151833	1.48956	0.0964355	
0.0152	1.47308	0.0984192	
0.0152167	1.4566	0.10025	
0.0152333	1.44043	0.0987244	
0.01525	1.42548	0.0939941	
0.0152667	1.40991	0.0881958	
0.0152833	1.39404	0.0924683	
0.0153	1.37787	0.0971985	
0.0153167	1.36139	0.0965881	
0.0153333	1.34491	0.0978088	
0.01535	1.32935	0.0984192	
0.0153667	1.3147	0.100708	
0.0153833	1.30035	0.100708	
0.0154	1.28479	0.0994873	
0.0154167	1.26892	0.100403	
0.0154333	1.25366	0.096283	
0.01545	1.2381	0.0947571	
0.0154667	1.22345	0.0953674	
0.0154833	1.21002	0.0979614	
0.0155	1.19507	0.101166	
0.0155167	1.17981	0.105133	
0.0155333	1.16791	0.110321	
0.01555	1.15356	0.114746	
0.0155667	1.13861	0.114746	
0.0155833	1.12518	0.110626	
0.0156	1.11206	0.106201	
0.0156167	1.09955	0.102844	
0.0156333	1.08612	0.102539	
0.01565	1.07361	0.105286	
0.0156667	1.0614	0.108032	
0.0156833	1.04675	0.112	
0.0157	1.03546	0.11261	
0.0157167	1.02325	0.106812	
0.0157333	1.01105	0.104523	
0.01575	0.99884	0.105591	
0.0157667	0.986938	0.10376	
0.0157833	0.973511	0.104828	
0.0158	0.961304	0.107574	
0.0158167	0.949707	0.101929	
0.0158333	0.936584	0.0944519	
0.01585	0.924988	0.0949097	
0.0158667	0.913086	0.09552	
0.0158833	0.901184	0.0918579	
0.0159	0.888062	0.092926	
0.0159167	0.87738	0.098877	
0.0159333	0.865784	0.102692	
0.01595	0.852966	0.109863	
0.0159667	0.84137	0.112762	
0.0159833	0.831604	0.110779	
0.016	0.820618	0.110626	
0.0160167	0.809326	0.108795	
0.0160333	0.797424	0.106201	
0.01605	0.787354	0.101013	
0.0160667	0.774231	0.0959778	
0.0160833	0.764465	0.0953674	
0.0161	0.752869	0.093689	
0.0161167	0.741272	0.0958252	
0.0161333	0.730896	0.0965881	
0.01615	0.72113	0.0971985	
0.0161667	0.711365	0.101929	
0.0161833	0.700073	0.104828	
0.0162	0.689392	0.107727	
0.0162167	0.679321	0.103455	
0.0162333	0.66925	0.0985718	
0.01625	0.659485	0.0920105	
0.0162667	0.65033	0.0912476	
0.0162833	0.640259	0.0949097	
0.0163	0.630798	0.0982666	
0.0163167	0.623169	0.0978088	
0.0163333	0.613403	0.0979614	
0.01635	0.605774	0.0987244	
0.0163667	0.597534	0.0979614	
0.0163833	0.588989	0.096283	
0.0164	0.578308	0.101471	
0.0164167	0.572205	0.100861	
0.0164333	0.56366	0.0946045	
0.01645	0.555725	0.0926208	
0.0164667	0.549011	0.0927734	
0.0164833	0.541687	0.0933838	
0.0165	0.534668	0.0970459	
0.0165167	0.528564	0.09552	
0.0165333	0.52124	0.0930786	
0.01655	0.516663	0.0891113	
0.0165667	0.510559	0.0886536	
0.0165833	0.504456	0.0917053	
0.0166	0.499268	0.0952148	
0.0166167	0.49408	0.0958252	
0.0166333	0.488281	0.0892639	
0.01665	0.483093	0.0839233	
0.0166667	0.479431	0.085907	
0.0166833	0.474854	0.0927734	
0.0167	0.471497	0.0979614	
0.0167167	0.467529	0.0923157	
0.0167333	0.461731	0.0889587	
0.01675	0.458069	0.0939941	
0.0167667	0.455322	0.0953674	
0.0167833	0.452271	0.0935364	
0.0168	0.450134	0.0920105	
0.0168167	0.447083	0.0895691	
0.0168333	0.444946	0.0909424	
0.01685	0.443115	0.0888062	
0.0168667	0.441589	0.0862122	
0.0168833	0.441895	0.0836182	
0.0169	0.439758	0.0854492	
0.0169167	0.439758	0.0898743	
0.0169333	0.439758	0.0935364	
0.01695	0.438538	0.0939941	
0.0169667	0.437927	0.0914001	
0.0169833	0.438538	0.0871277	
0.017	0.439758	0.0881958	
0.0170167	0.438843	0.0872803	
0.0170333	0.441284	0.0881958	
0.01705	0.442505	0.0868225	
0.0170667	0.444641	0.0865173	
0.0170833	0.445862	0.087738	
0.0171	0.447998	0.0865173	
0.0171167	0.453491	0.0862122	
0.0171333	0.456543	0.0868225	
0.01715	0.458679	0.0862122	
0.0171667	0.462646	0.0842285	
0.0171833	0.466003	0.0834656	
0.0172	0.470276	0.0849915	
0.0172167	0.475159	0.0857544	
0.0172333	0.480042	0.085144	
0.01725	0.485229	0.0776672	
0.0172667	0.491333	0.0686646	
0.0172833	0.497131	0.0708008	
0.0173	0.503845	0.0753784	
0.0173167	0.509644	0.0743103	
0.0173333	0.515442	0.0738525	
0.01735	0.521851	0.0741577	
0.0173667	0.52887	0.0759888	
0.0173833	0.536804	0.0741577	
0.0174	0.542908	0.0740051	
0.0174167	0.549622	0.0737	
0.0174333	0.556946	0.0735474	
0.01745	0.565491	0.0759888	
0.0174667	0.573425	0.0744629	
0.0174833	0.579529	0.0737	
0.0175	0.587158	0.0752258	
0.0175167	0.593567	0.0741577	
0.0175333	0.602417	0.0712585	
0.01755	0.608521	0.0714111	
0.0175667	0.61554	0.0712585	
0.0175833	0.624084	0.0726318	
0.0176	0.632019	0.0712585	
0.0176167	0.639038	0.0688171	
0.0176333	0.647278	0.0646973	
0.01765	0.653687	0.063324	
0.0176667	0.662537	0.0675964	
0.0176833	0.669861	0.0727844	
0.0177	0.67627	0.0752258	
0.0177167	0.682983	0.0746155	
0.0177333	0.690002	0.0738525	
0.01775	0.698242	0.0740051	
0.0177667	0.705566	0.0697327	
0.0177833	0.710449	0.0686646	
0.0178	0.717773	0.0665283	
0.0178167	0.724182	0.0637817	
0.0178333	0.731201	0.0619507	
0.01785	0.737915	0.0657654	
0.0178667	0.744019	0.0718689	
0.0178833	0.751648	0.0733948	
0.0179	0.757446	0.0712585	
0.0179167	0.761719	0.071106	
0.0179333	0.766907	0.0653076	
0.01795	0.773926	0.0604248	
0.0179667	0.779419	0.0637817	
0.0179833	0.784302	0.0704956	
0.018	0.788879	0.0733948	
0.0180167	0.794373	0.0700378	
0.0180333	0.799561	0.0671387	
0.01805	0.803833	0.0665283	
0.0180667	0.808411	0.0669861	
0.0180833	0.812073	0.0727844	
0.0181	0.81604	0.0747681	
0.0181167	0.820923	0.0735474	
0.0181333	0.82428	0.0712585	
0.01815	0.826721	0.0672913	
0.0181667	0.830994	0.0648499	
0.0181833	0.836182	0.0653076	
0.0182	0.836182	0.067749	
0.0182167	0.838928	0.0665283	
0.0182333	0.842896	0.0642395	
0.01825	0.845947	0.0637817	
0.0182667	0.846558	0.065155	
0.0182833	0.848389	0.0683594	
0.0183	0.85083	0.0692749	
0.0183167	0.853271	0.0650024	
0.0183333	0.854797	0.0665283	
0.01835	0.855408	0.0688171	
0.0183667	0.856628	0.0671387	
0.0183833	0.857849	0.068512	
0.0184	0.85907	0.0712585	
0.0184167	0.858765	0.0714111	
0.0184333	0.857849	0.0709534	
0.01845	0.85907	0.0691223	
0.0184667	0.85907	0.0689697	
0.0184833	0.858765	0.070343	
0.0185	0.856018	0.0692749	
0.0185167	0.856934	0.0674438	
0.0185333	0.856934	0.0688171	
0.01855	0.854187	0.0723267	
0.0185667	0.854492	0.0764465	
0.0185833	0.851746	0.0764465	
0.0186	0.849304	0.0721741	
0.0186167	0.848694	0.0717163	
0.0186333	0.845337	0.0738525	
0.01865	0.842285	0.0737	
0.0186667	0.841675	0.0737	
0.0186833	0.839539	0.0697327	
0.0187	0.836487	0.0648499	
0.0187167	0.83313	0.0621033	
0.0187333	0.831604	0.0592041	
0.01875	0.827637	0.0572205	
0.0187667	0.82489	0.0592041	
0.0187833	0.820618	0.0628662	
0.0188	0.817566	0.0617981	
0.0188167	0.813599	0.0637817	
0.0188333	0.809937	0.0640869	
0.01885	0.806274	0.0622559	
0.0188667	0.801392	0.0592041	
0.0188833	0.795898	0.0572205	
0.0189	0.791626	0.0602722	
0.0189167	0.786133	0.0588989	
0.0189333	0.78125	0.0578308	
0.01895	0.776367	0.0631714	
0.0189667	0.77179	0.0666809	
0.0189833	0.765686	0.068512	
0.019	0.758972	0.065155	
0.0190167	0.752563	0.0640869	
0.0190333	0.748291	0.0660706	
0.01905	0.742188	0.0691223	
0.0190667	0.734863	0.0708008	
0.0190833	0.72998	0.0718689	
0.0191	0.725708	0.068512	
0.0191167	0.717163	0.0643921	
0.0191333	0.712891	0.0598145	
0.01915	0.704956	0.0572205	
0.0191667	0.700073	0.0541687	
0.0191833	0.693359	0.0546265	
0.0192	0.686951	0.0579834	
0.0192167	0.680542	0.0595093	
0.0192333	0.673523	0.0630188	
0.01925	0.668945	0.0619507	
0.0192667	0.661621	0.055542	
0.0192833	0.654907	0.0518799	
0.0193	0.649109	0.0534058	
0.0193167	0.64209	0.0547791	
0.0193333	0.634766	0.0582886	
0.01935	0.628967	0.0570679	
0.0193667	0.621338	0.0543213	
0.0193833	0.61615	0.0540161	
0.0194	0.609436	0.0502014	
0.0194167	0.603027	0.04776	
0.0194333	0.598145	0.0505066	
0.01945	0.591125	0.0558472	
0.0194667	0.582275	0.0588989	
0.0194833	0.575867	0.0566101	
0.0195	0.569153	0.0567627	
0.0195167	0.562134	0.0566101	
0.0195333	0.553894	0.0550842	
0.01955	0.54718	0.0538635	
0.0195667	0.539551	0.0515747	
0.0195833	0.531616	0.0508118	
0.0196	0.525208	0.0482178	
0.0196167	0.517578	0.0495911	
0.0196333	0.51178	0.0515747	
0.01965	0.503235	0.0518799	
0.0196667	0.497131	0.0517273	
0.0196833	0.488281	0.0518799	
0.0197	0.482178	0.0502014	
0.0197167	0.474548	0.04776	
0.0197333	0.465698	0.0448608	
0.01975	0.458984	0.0460815	
0.0197667	0.452881	0.0512695	
0.0197833	0.444031	0.0540161	
0.0198	0.436096	0.0498962	
0.0198167	0.429077	0.0473022	
0.0198333	0.422363	0.0492859	
0.01985	0.415039	0.0497437	
0.0198667	0.409241	0.0547791	
0.0198833	0.399475	0.0604248	
0.0199	0.393677	0.0614929	
0.0199167	0.387573	0.0616455	
0.0199333	0.379944	0.0559998	
0.01995	0.37323	0.0520325	
0.0199667	0.367432	0.0521851	
0.0199833	0.359802	0.0576782	
0.02	0.352783	0.0634766	
0.0200167	0.346069	0.0593567	
0.0200333	0.338745	0.0526428	
0.02005	0.331116	0.0454712	
0.0200667	0.325317	0.0440979	
0.0200833	0.318909	0.0465393	
0.0201	0.311279	0.0482178	
0.0201167	0.305786	0.0491333	
0.0201333	0.300903	0.0494385	
0.02015	0.293884	0.0515747	
0.0201667	0.28656	0.0540161	
0.0201833	0.279236	0.0582886	
0.0202	0.272217	0.0569153	
0.0202167	0.265198	0.0517273	
0.0202333	0.258789	0.0494385	
0.02025	0.25116	0.0489807	
0.0202667	0.244751	0.0517273	
0.0202833	0.237732	0.0540161	
0.0203	0.232239	0.0543213	
0.0203167	0.225525	0.0543213	
0.0203333	0.217896	0.0553894	
0.02035	0.212708	0.0531006	
0.0203667	0.205078	0.0556946	
0.0203833	0.198364	0.0590515	
0.0204	0.193787	0.0575256	
0.0204167	0.186157	0.0550842	
0.0204333	0.178833	0.0505066	
0.02045	0.173035	0.052948	
0.0204667	0.166626	0.0498962	
0.0204833	0.161133	0.0431824	
0.0205	0.155029	0.0439453	
0.0205167	0.148621	0.0509644	
0.0205333	0.144043	0.0563049	
0.02055	0.139465	0.0582886	
0.0205667	0.131836	0.0527954	
0.0205833	0.125427	0.0520325	
0.0206	0.120544	0.0544739	
0.0206167	0.114136	0.0587463	
0.0206333	0.107727	0.0630188	
0.02065	0.102234	0.0639343	
0.0206667	0.0970459	0.065918	
0.0206833	0.0906372	0.0631714	
0.0207	0.085144	0.0637817	
0.0207167	0.0802612	0.0579834	
0.0207333	0.0732422	0.0544739	
0.02075	0.0683594	0.0544739	
0.0207667	0.0622559	0.0549316	
0.0207833	0.055542	0.0602722	
0.0208	0.0518799	0.0575256	
0.0208167	0.0445557	0.0572205	
0.0208333	0.0393677	0.0601196	
0.02085	0.0338745	0.0572205	
0.0208667	0.0289917	0.0527954	
0.0208833	0.0244141	0.0532532	
0.0209	0.0167847	0.0561523	
0.0209167	0.0119019	0.0572205	
0.0209333	0.00640869	0.0567627	
0.02095	0.00305176	0.0605774	
0.0209667	-0.00244141	0.0660706	
0.0209833	-0.00762939	0.0682068	
0.021	-0.012207	0.0650024	
0.0210167	-0.0170898	0.0640869	
0.0210333	-0.0241089	0.0631714	
0.02105	-0.0302124	0.0636292	
0.0210667	-0.0344849	0.0613403	
0.0210833	-0.0393677	0.0608826	
0.0211	-0.0439453	0.0636292	
0.0211167	-0.0494385	0.0706482	
0.0211333	-0.0549316	0.0718689	
0.02115	-0.0595093	0.0672913	
0.0211667	-0.0640869	0.0642395	
0.0211833	-0.0683594	0.0660706	
0.0212	-0.0738525	0.070343	
0.0212167	-0.078125	0.0712585	
0.0212333	-0.083313	0.0695801	
0.02125	-0.0881958	0.0688171	
0.0212667	-0.0924683	0.0691223	
0.0212833	-0.0961304	0.071106	
0.0213	-0.100403	0.0715637	
0.0213167	-0.10498	0.0718689	
0.0213333	-0.110168	0.0747681	
0.02135	-0.115662	0.0759888	
0.0213667	-0.119324	0.0801086	
0.0213833	-0.122681	0.0798035	
0.0214	-0.126343	0.0794983	
0.0214167	-0.1297	0.0769043	
0.0214333	-0.133667	0.080719	
0.02145	-0.137634	0.0892639	
0.0214667	-0.140991	0.0947571	
0.0214833	-0.144653	0.092926	
0.0215	-0.148315	0.0947571	
0.0215167	-0.152283	0.0978088	
0.0215333	-0.153809	0.0982666	
0.02155	-0.158386	0.10025	
0.0215667	-0.162048	0.106506	
0.0215833	-0.165405	0.109863	
0.0216	-0.169067	0.106506	
0.0216167	-0.172424	0.105591	
0.0216333	-0.177612	0.107117	
0.02165	-0.18158	0.109863	
0.0216667	-0.184326	0.112762	
0.0216833	-0.188904	0.115814	
0.0217	-0.192261	0.119171	
0.0217167	-0.196838	0.116425	
0.0217333	-0.19989	0.117798	
0.02175	-0.203552	0.121307	
0.0217667	-0.20752	0.126801	
0.0217833	-0.211487	0.1297	
0.0218	-0.216064	0.131989	
0.0218167	-0.218201	0.128479	
0.0218333	-0.220947	0.125732	
0.02185	-0.226135	0.12207	
0.0218667	-0.229187	0.12207	
0.0218833	-0.233154	0.124512	
0.0219	-0.237732	0.129242	
0.0219167	-0.240479	0.136108	
0.0219333	-0.243225	0.137024	
0.02195	-0.249634	0.135651	
0.0219667	-0.25238	0.132904	
0.0219833	-0.255737	0.133972	
0.022	-0.26001	0.137329	
0.0220167	-0.262756	0.13855	
0.0220333	-0.267029	0.137787	
0.02205	-0.270996	0.133514	
0.0220667	-0.274658	0.132294	
0.0220833	-0.277405	0.132446	
0.0221	-0.281067	0.126953	
0.0221167	-0.282898	0.121155	
0.0221333	-0.287476	0.117188	
0.02215	-0.289917	0.111847	
0.0221667	-0.291748	0.110168	
0.0221833	-0.2948	0.108795	
0.0222	-0.297546	0.106201	
0.0222167	-0.299377	0.109253	
0.0222333	-0.301819	0.108795	
0.02225	-0.304565	0.109406	
0.0222667	-0.307312	0.111847	
0.0222833	-0.310364	0.108795	
0.0223	-0.314636	0.106659	
0.0223167	-0.316467	0.10498	
0.0223333	-0.318298	0.101318	
0.02235	-0.321655	0.0946045	
0.0223667	-0.325012	0.092926	
0.0223833	-0.326538	0.0914001	
0.0224	-0.328369	0.0868225	
0.0224167	-0.331116	0.085907	
0.0224333	-0.333557	0.0776672	
0.02245	-0.335999	0.0744629	
0.0224667	-0.33783	0.0775146	
0.0224833	-0.340881	0.0721741	
0.0225	-0.342407	0.0674438	
0.0225167	-0.343323	0.0680542	
0.0225333	-0.345764	0.0630188	
0.02255	-0.346985	0.057373	
0.0225667	-0.349731	0.0544739	
0.0225833	-0.350342	0.0520325	
0.0226	-0.353699	0.0482178	
0.0226167	-0.354614	0.0410461	
0.0226333	-0.355835	0.0386047	
0.02265	-0.35675	0.0378418	
0.0226667	-0.359192	0.0392151	
0.0226833	-0.361938	0.0343323	
0.0227	-0.363464	0.0344849	
0.0227167	-0.365601	0.0404358	
0.0227333	-0.366516	0.0357056	
0.02275	-0.368958	0.0288391	
0.0227667	-0.370483	0.0282288	
0.0227833	-0.373535	0.0311279	
0.0228	-0.376587	0.0318909	
0.0228167	-0.378418	0.0296021	
0.0228333	-0.382385	0.0254822	
0.02285	-0.385437	0.0271606	
0.0228667	-0.387878	0.025177	
0.0228833	-0.389709	0.0202942	
0.0229	-0.392456	0.0193787	
0.0229167	-0.394897	0.0215149	
0.0229333	-0.39917	0.0230408	
0.02295	-0.403137	0.0250244	
0.0229667	-0.405273	0.0283813	
0.0229833	-0.407104	0.0285339	
0.023	-0.411682	0.0312805	
0.0230167	-0.414734	0.0318909	
0.0230333	-0.419312	0.027771	
0.02305	-0.422058	0.0230408	
0.0230667	-0.424194	0.0241089	
0.0230833	-0.427246	0.0254822	
0.0231	-0.430298	0.0274658	
0.0231167	-0.432739	0.0257874	
0.0231333	-0.43457	0.0250244	
0.02315	-0.436096	0.0245667	
0.0231667	-0.438843	0.0270081	
0.0231833	-0.441589	0.0312805	
0.0232	-0.442505	0.0286865	
0.0232167	-0.444641	0.0273132	
0.0232333	-0.446472	0.025177	
0.02325	-0.449524	0.0291443	
0.0232667	-0.449829	0.0285339	
0.0232833	-0.453491	0.0296021	
0.0233	-0.456543	0.0274658	
0.0233167	-0.457458	0.0306702	
0.0233333	-0.45929	0.0323486	
0.02335	-0.460815	0.030365	
0.0233667	-0.463257	0.0311279	
0.0233833	-0.466003	0.032196	
0.0234	-0.466614	0.0306702	
0.0234167	-0.469971	0.0282288	
0.0234333	-0.471497	0.0257874	
0.02345	-0.473633	0.0215149	
0.0234667	-0.474548	0.0163269	
0.0234833	-0.476379	0.0157166	
0.0235	-0.478516	0.0233459	
0.0235167	-0.480652	0.0292969	
0.0235333	-0.482788	0.0320435	
0.02355	-0.484314	0.0325012	
0.0235667	-0.486755	0.0320435	
0.0235833	-0.488586	0.0343323	
0.0236	-0.489502	0.0404358	
0.0236167	-0.491333	0.0444031	
0.0236333	-0.493774	0.0440979	
0.02365	-0.495605	0.0402832	
0.0236667	-0.497742	0.039978	
0.0236833	-0.499268	0.0378418	
0.0237	-0.501099	0.0349426	
0.0237167	-0.50354	0.0328064	
0.0237333	-0.506592	0.0302124	
0.02375	-0.508728	0.0282288	
0.0237667	-0.509949	0.0215149	
0.0237833	-0.514832	0.0141907	
0.0238	-0.516968	0.00854492	
0.0238167	-0.518799	0.00213623	
0.0238333	-0.522156	-0.00152588	
0.02385	-0.523682	-0.00564575	
0.0238667	-0.526428	-0.00442505	
0.0238833	-0.529175	-0.00228882	
0.0239	-0.532227	0.000610352	
0.0239167	-0.534668	0.00488281	
0.0239333	-0.538025	0.0141907	
0.02395	-0.539246	0.0297546	
0.0239667	-0.542603	0.0492859	
0.0239833	-0.542908	0.0709534	
0.024	-0.545654	0.0909424	
0.0240167	-0.549316	0.110168	
0.0240333	-0.550537	0.135498	
0.02405	-0.552979	0.158844	
0.0240667	-0.555115	0.185089	
0.0240833	-0.558167	0.223083	
0.0241	-0.559082	0.272064	
0.0241167	-0.562439	0.321503	
0.0241333	-0.563965	0.37262	
0.02415	-0.567017	0.420074	
0.0241667	-0.567322	0.464325	
0.0241833	-0.570374	0.500488	
0.0242	-0.570679	0.545349	
0.0242167	-0.574341	0.596924	
0.0242333	-0.576782	0.644989	
0.02425	-0.577698	0.693665	
0.0242667	-0.58075	0.737915	
0.0242833	-0.582275	0.77301	
0.0243	-0.586243	0.804291	
0.0243167	-0.589294	0.842133	
0.0243333	-0.591736	0.87616	
0.02435	-0.593872	0.901184	
0.0243667	-0.596313	0.922394	
0.0243833	-0.59845	0.940247	
0.0244	-0.601196	0.938721	
0.0244167	-0.604858	0.923157	
0.0244333	-0.606689	0.90271	
0.02445	-0.610962	0.883942	
0.0244667	-0.611877	0.866852	
0.0244833	-0.61615	0.851593	
0.0245	-0.618286	0.828857	
0.0245167	-0.621643	0.786285	
0.0245333	-0.623169	0.731049	
0.02455	-0.623779	0.675659	
0.0245667	-0.627747	0.620575	
0.0245833	-0.630188	0.565186	
0.0246	-0.63324	0.514679	
0.0246167	-0.635376	0.483246	
0.0246333	-0.638428	0.460968	
0.02465	-0.640259	0.441437	
0.0246667	-0.643616	0.418396	
0.0246833	-0.645752	0.391388	
0.0247	-0.648193	0.361786	
0.0247167	-0.65033	0.32608	
0.0247333	-0.654907	0.285645	
0.02475	-0.657349	0.247955	
0.0247667	-0.65979	0.217896	
0.0247833	-0.662231	0.195007	
0.0248	-0.664368	0.185394	
0.0248167	-0.667114	0.177917	
0.0248333	-0.66925	0.165405	
0.02485	-0.672302	0.148163	
0.0248667	-0.675354	0.138397	
0.0248833	-0.67749	0.135651	
0.0249	-0.680237	0.130615	
0.0249167	-0.684814	0.124359	
0.0249333	-0.685425	0.129089	
0.02495	-0.689087	0.129395	
0.0249667	-0.691528	0.125732	
0.0249833	-0.693359	0.121765	
0.025	-0.696716	0.114288	
0.0250167	-0.700073	0.106964	
0.0250333	-0.701599	0.109253	
0.02505	-0.703735	0.106506	
0.0250667	-0.707092	0.101776	
0.0250833	-0.708618	0.10437	
0.0251	-0.71106	0.101929	
0.0251167	-0.713806	0.0909424	
0.0251333	-0.714722	0.0837708	
0.02515	-0.717163	0.0836182	
0.0251667	-0.718994	0.0831604	
0.0251833	-0.721436	0.0805664	
0.0252	-0.722046	0.0764465	
0.0252167	-0.723877	0.067749	
0.0252333	-0.724792	0.0598145	
0.02525	-0.726318	0.0567627	
0.0252667	-0.728149	0.0582886	
0.0252833	-0.72998	0.0590515	
0.0253	-0.732422	0.0590515	
0.0253167	-0.732117	0.0567627	
0.0253333	-0.734558	0.0550842	
0.02535	-0.736084	0.0543213	
0.0253667	-0.738831	0.0540161	
0.0253833	-0.739136	0.0532532	
0.0254	-0.741882	0.0502014	
0.0254167	-0.742188	0.0509644	
0.0254333	-0.744324	0.0512695	
0.02545	-0.746155	0.0474548	
0.0254667	-0.748596	0.0427246	
0.0254833	-0.748901	0.039978	
0.0255	-0.751953	0.0418091	
0.0255167	-0.753479	0.0419617	
0.0255333	-0.755615	0.0402832	
0.02555	-0.758667	0.0395203	
0.0255667	-0.758972	0.043335	
0.0255833	-0.761414	0.0427246	
0.0256	-0.763245	0.0402832	
0.0256167	-0.766296	0.0378418	
0.0256333	-0.768433	0.0357056	
0.02565	-0.771179	0.0352478	
0.0256667	-0.772705	0.0389099	
0.0256833	-0.773315	0.0418091	
0.0257	-0.775757	0.0465393	
0.0257167	-0.778809	0.0430298	
0.0257333	-0.780029	0.0375366	
0.02575	-0.783081	0.0389099	
0.0257667	-0.784302	0.038147	
0.0257833	-0.787659	0.0378418	
0.0258	-0.790405	0.0395203	
0.0258167	-0.792542	0.0398254	
0.0258333	-0.794373	0.0387573	
0.02585	-0.797729	0.0341797	
0.0258667	-0.799561	0.0323486	
0.0258833	-0.802612	0.0318909	
0.0259	-0.803528	0.0318909	
0.0259167	-0.80658	0.0328064	
0.0259333	-0.808411	0.0372314	
0.02595	-0.809631	0.0479126	
0.0259667	-0.812988	0.0521851	
0.0259833	-0.814819	0.0517273	
0.026	-0.816956	0.04776	
0.0260167	-0.817871	0.0469971	
0.0260333	-0.820313	0.0463867	
0.02605	-0.823059	0.0444031	
0.0260667	-0.826721	0.0401306	
0.0260833	-0.827942	0.0370789	
0.0261	-0.829773	0.0334167	
0.0261167	-0.831604	0.0366211	
0.0261333	-0.834351	0.0392151	
0.02615	-0.835266	0.0392151	
0.0261667	-0.836792	0.043335	
0.0261833	-0.839844	0.0424194	
0.0262	-0.84198	0.0384521	
0.0262167	-0.845337	0.0390625	
0.0262333	-0.847473	0.039978	
0.02625	-0.849609	0.0384521	
0.0262667	-0.853271	0.039978	
0.0262833	-0.854492	0.0418091	
0.0263	-0.856934	0.0379944	
0.0263167	-0.85907	0.0349426	
0.0263333	-0.861816	0.0346375	
0.02635	-0.863647	0.0395203	
0.0263667	-0.865784	0.0419617	
0.0263833	-0.866089	0.0401306	
0.0264	-0.870667	0.0395203	
0.0264167	-0.871887	0.0436401	
0.0264333	-0.873108	0.0448608	
0.02645	-0.875549	0.0465393	
0.0264667	-0.877686	0.0486755	
0.0264833	-0.878601	0.0453186	
0.0265	-0.881042	0.0447083	
0.0265167	-0.882874	0.0480652	
0.0265333	-0.88562	0.0491333	
0.02655	-0.885925	0.0479126	
0.0265667	-0.888672	0.0489807	
0.0265833	-0.891113	0.0517273	
0.0266	-0.892944	0.0514221	
0.0266167	-0.895081	0.0492859	
0.0266333	-0.897522	0.045166	
0.02665	-0.900269	0.0445557	
0.0266667	-0.901184	0.0444031	
0.0266833	-0.90271	0.0447083	
0.0267	-0.904846	0.0483704	
0.0267167	-0.907593	0.0488281	
0.0267333	-0.908203	0.0488281	
0.02675	-0.911865	0.0537109	
0.0267667	-0.914612	0.0602722	
0.0267833	-0.915833	0.0578308	
0.0268	-0.918579	0.0544739	
0.0268167	-0.917664	0.0518799	
0.0268333	-0.92041	0.0515747	
0.02685	-0.923157	0.050354	
0.0268667	-0.924072	0.0520325	
0.0268833	-0.925293	0.0541687	
0.0269	-0.92804	0.0547791	
0.0269167	-0.931091	0.058136	
0.0269333	-0.932312	0.0549316	
0.02695	-0.935364	0.0505066	
0.0269667	-0.93689	0.0486755	
0.0269833	-0.939331	0.0468445	
0.027	-0.940552	0.0471497	
0.0270167	-0.944519	0.0546265	
0.0270333	-0.94635	0.06073	
0.02705	-0.948792	0.0636292	
0.0270667	-0.951233	0.0637817	
0.0270833	-0.953979	0.0619507	
0.0271	-0.956421	0.0576782	
0.0271167	-0.959778	0.0604248	
0.0271333	-0.961609	0.0637817	
0.02715	-0.96405	0.0604248	
0.0271667	-0.965576	0.0593567	
0.0271833	-0.967407	0.0628662	
0.0272	-0.969543	0.0665283	
0.0272167	-0.972595	0.0645447	
0.0272333	-0.974426	0.0596619	
0.02725	-0.977478	0.0567627	
0.0272667	-0.979614	0.0585938	
0.0272833	-0.98114	0.0650024	
0.0273	-0.984497	0.0688171	
0.0273167	-0.986328	0.0708008	
0.0273333	-0.98999	0.0730896	
0.02735	-0.992432	0.0753784	
0.0273667	-0.994873	0.070343	
0.0273833	-0.996704	0.0643921	
0.0274	-0.99884	0.0614929	
0.0274167	-1.00128	0.0596619	
0.0274333	-1.00372	0.0631714	
0.02745	-1.00739	0.0679016	
0.0274667	-1.00922	0.0672913	
0.0274833	-1.01135	0.0639343	
0.0275	-1.0141	0.0617981	
0.0275167	-1.01746	0.0646973	
0.0275333	-1.01807	0.070343	
0.02755	-1.02112	0.0715637	
0.0275667	-1.02325	0.075531	
0.0275833	-1.02356	0.08255	
0.0276	-1.02753	0.0798035	
0.0276167	-1.02936	0.0804138	
0.0276333	-1.0321	0.08255	
0.02765	-1.03485	0.0817871	
0.0276667	-1.03699	0.0772095	
0.0276833	-1.03821	0.0767517	
0.0277	-1.04065	0.0801086	
0.0277167	-1.04462	0.0790405	
0.0277333	-1.04675	0.0744629	
0.02775	-1.04797	0.0698853	
0.0277667	-1.05011	0.071106	
0.0277833	-1.05286	0.0773621	
0.0278	-1.05682	0.0787354	
0.0278167	-1.05743	0.0787354	
0.0278333	-1.05988	0.0787354	
0.02785	-1.06232	0.0787354	
0.0278667	-1.06506	0.08255	
0.0278833	-1.06567	0.0868225	
0.0279	-1.0672	0.088501	
0.0279167	-1.06873	0.0881958	
0.0279333	-1.07239	0.0860596	
0.02795	-1.07391	0.0845337	
0.0279667	-1.07727	0.087738	
0.0279833	-1.07971	0.0907898	
0.028	-1.08002	0.0891113	
0.0280167	-1.08337	0.0892639	
0.0280333	-1.08643	0.0904846	
0.02805	-1.08734	0.092926	
0.0280667	-1.08978	0.0909424	
0.0280833	-1.09192	0.0886536	
0.0281	-1.09192	0.0837708	
0.0281167	-1.09436	0.0830078	
0.0281333	-1.09558	0.0814819	
0.02815	-1.0968	0.085144	
0.0281667	-1.09711	0.0880432	
0.0281833	-1.09924	0.0846863	
0.0282	-1.09924	0.0836182	
0.0282167	-1.09985	0.0779724	
0.0282333	-1.10046	0.0735474	
0.02825	-1.10077	0.0709534	
0.0282667	-1.10138	0.0695801	
0.0282833	-1.10016	0.0723267	
0.0283	-1.09924	0.0718689	
0.0283167	-1.09955	0.0672913	
0.0283333	-1.09802	0.0642395	
0.02835	-1.09558	0.0614929	
0.0283667	-1.09406	0.0610352	
0.0283833	-1.09222	0.0619507	
0.0284	-1.08856	0.067749	
0.0284167	-1.08368	0.0732422	
0.0284333	-1.08124	0.0700378	
0.02845	-1.07391	0.0691223	
0.0284667	-1.0675	0.0672913	
0.0284833	-1.06049	0.0665283	
0.0285	-1.05225	0.0642395	
0.0285167	-1.04248	0.0614929	
0.0285333	-1.03271	0.0683594	
0.02855	-1.02142	0.0732422	
0.0285667	-1.0083	0.0770569	
0.0285833	-0.994568	0.0785828	
0.0286	-0.98053	0.0773621	
0.0286167	-0.96344	0.0785828	
0.0286333	-0.94635	0.0791931	
0.02865	-0.925293	0.0750732	
0.0286667	-0.907288	0.0717163	
0.0286833	-0.88623	0.0727844	
0.0287	-0.864258	0.0720215	
0.0287167	-0.840759	0.0698853	
0.0287333	-0.817261	0.0691223	
0.02875	-0.791321	0.0704956	
0.0287667	-0.764465	0.0708008	
0.0287833	-0.735474	0.0668335	
0.0288	-0.706482	0.0679016	
0.0288167	-0.674438	0.0645447	
0.0288333	-0.6427	0.0613403	
0.02885	-0.609741	0.0611877	
0.0288667	-0.574951	0.0608826	
0.0288833	-0.53833	0.0613403	
0.0289	-0.500183	0.0595093	
0.0289167	-0.460815	0.057373	
0.0289333	-0.420532	0.0541687	
0.02895	-0.379028	0.0540161	
0.0289667	-0.336609	0.0566101	
0.0289833	-0.291138	0.0593567	
0.029	-0.246582	0.0570679	
0.0290167	-0.19928	0.0559998	
0.0290333	-0.151978	0.0549316	
0.02905	-0.103149	0.0526428	
0.0290667	-0.0540161	0.0500488	
0.0290833	-0.00366211	0.0497437	
0.0291	0.0494385	0.0535583	
0.0291167	0.100098	0.0540161	
0.0291333	0.153503	0.0514221	
0.02915	0.207214	0.0512695	
0.0291667	0.262146	0.0497437	
0.0291833	0.317688	0.0450134	
0.0292	0.371704	0.0462341	
0.0292167	0.426941	0.0491333	
0.0292333	0.482483	0.0473022	
0.02925	0.540161	0.0465393	
0.0292667	0.594177	0.0506592	
0.0292833	0.651245	0.0511169	
0.0293	0.708313	0.0515747	
0.0293167	0.76355	0.0476074	
0.0293333	0.820313	0.0444031	
0.02935	0.876465	0.0437927	
0.0293667	0.930176	0.0445557	
0.0293833	0.986328	0.0488281	
0.0294	1.04034	0.0502014	
0.0294167	1.09314	0.0511169	
0.0294333	1.14594	0.0450134	
0.02945	1.19812	0.0421143	
0.0294667	1.25122	0.0416565	
0.0294833	1.30096	0.038147	
0.0295	1.35132	0.0372314	
0.0295167	1.40076	0.0360107	
0.0295333	1.44806	0.037384	
0.02955	1.49414	0.039978	
0.0295667	1.53961	0.037384	
0.0295833	1.58569	0.0325012	
0.0296	1.63086	0.0317383	
0.0296167	1.67297	0.0320435	
0.0296333	1.71356	0.0280762	
0.02965	1.75568	0.0270081	
0.0296667	1.79504	0.0274658	
0.0296833	1.83258	0.0289917	
0.0297	1.87042	0.0299072	
0.0297167	1.90552	0.0341797	
0.0297333	1.94153	0.037384	
0.02975	1.97449	0.0408936	
0.0297667	2.00623	0.0415039	
0.0297833	2.03949	0.0431824	
0.0298	2.0694	0.0386047	
0.0298167	2.09808	0.0334167	
0.0298333	2.12646	0.0309753	
0.02985	2.15149	0.0312805	
0.0298667	2.17682	0.030365	
0.0298833	2.20093	0.0323486	
0.0299	2.2229	0.0305176	
0.0299167	2.24609	0.0302124	
0.0299333	2.26624	0.0317383	
0.02995	2.28546	0.0338745	
0.0299667	2.30347	0.0308228	
0.0299833	2.31415	0.0297546	
0.03	2.31384	0.0314331	
0.0300167	2.31415	0.0299072	
0.0300333	2.31445	0.0282288	
0.03005	2.31384	0.0218201	
0.0300667	2.31354	0.0178528	
0.0300833	2.31384	0.015564	
0.0301	2.31415	0.0151062	
0.0301167	2.31354	0.0228882	
0.0301333	2.31354	0.025177	
0.03015	2.31354	0.0248718	
0.0301667	2.31323	0.0257874	
0.0301833	2.31384	0.0309753	
0.0302	2.31323	0.0323486	
0.0302167	2.31384	0.0326538	
0.0302333	2.31384	0.030365	
0.03025	2.31354	0.0325012	
0.0302667	2.31354	0.0363159	
0.0302833	2.31323	0.0390625	
0.0303	2.31384	0.0418091	
0.0303167	2.31323	0.0418091	
0.0303333	2.31323	0.0424194	
0.03035	2.31354	0.0422668	
0.0303667	2.31293	0.0404358	
0.0303833	2.31354	0.039978	
0.0304	2.31323	0.0418091	
0.0304167	2.31293	0.0413513	
0.0304333	2.31293	0.0376892	
0.03045	2.31293	0.037384	
0.0304667	2.31232	0.0375366	
0.0304833	2.31171	0.0389099	
0.0305	2.31201	0.0393677	
0.0305167	2.31201	0.0375366	
0.0305333	2.31171	0.0379944	
0.03055	2.31201	0.0408936	
0.0305667	2.31201	0.0418091	
0.0305833	2.31232	0.0456238	
0.0306	2.29797	0.0508118	
0.0306167	2.27753	0.0491333	
0.0306333	2.26318	0.0448608	
0.03065	2.24792	0.042572	
0.0306667	2.23358	0.0457764	
0.0306833	2.21649	0.0500488	
0.0307	2.20245	0.0531006	
0.0307167	2.18719	0.0514221	
0.0307333	2.1701	0.0457764	
0.03075	2.15424	0.042572	
0.0307667	2.13837	0.0444031	
0.0307833	2.11945	0.0453186	
0.0308	2.10358	0.0444031	
0.0308167	2.08649	0.0463867	
0.0308333	2.07031	0.0492859	
0.03085	2.052	0.0495911	
0.0308667	2.034	0.0532532	
0.0308833	2.01599	0.0540161	
0.0309	1.9986	0.0482178	
0.0309167	1.98151	0.0431824	
0.0309333	1.96289	0.0401306	
0.03095	1.94519	0.0415039	
0.0309667	1.92596	0.0442505	
0.0309833	1.90704	0.0430298	
0.031	1.88873	0.0447083	
0.0310167	1.87042	0.0531006	
0.0310333	1.85181	0.0640869	
0.03105	1.83411	0.0679016	
0.0310667	1.81549	0.0643921	
0.0310833	1.7984	0.059967	
0.0311	1.77917	0.0593567	
0.0311167	1.76056	0.0636292	
0.0311333	1.74194	0.0665283	
0.03115	1.72363	0.0662231	
0.0311667	1.70654	0.0639343	
0.0311833	1.68762	0.0575256	
0.0312	1.66901	0.0570679	
0.0312167	1.651	0.0567627	
0.0312333	1.63391	0.0550842	
0.03125	1.61652	0.0524902	
0.0312667	1.5976	0.0517273	
0.0312833	1.57898	0.0540161	
0.0313	1.56189	0.0601196	
0.0313167	1.54572	0.0636292	
0.0313333	1.52771	0.0585938	
0.03135	1.51031	0.0569153	
0.0313667	1.49384	0.0590515	
0.0313833	1.47552	0.0564575	
0.0314	1.45935	0.0521851	
0.0314167	1.44226	0.0498962	
0.0314333	1.42731	0.0450134	
0.03145	1.41052	0.0457764	
0.0314667	1.39526	0.0508118	
0.0314833	1.37848	0.0491333	
0.0315	1.3623	0.0389099	
0.0315167	1.34674	0.0384521	
0.0315333	1.32935	0.0456238	
0.03155	1.3147	0.0534058	
0.0315667	1.29822	0.0582886	
0.0315833	1.28296	0.0614929	
0.0316	1.26801	0.0653076	
0.0316167	1.25366	0.0683594	
0.0316333	1.23749	0.0605774	
0.03165	1.22192	0.0508118	
0.0316667	1.20728	0.0474548	
0.0316833	1.19171	0.0509644	
0.0317	1.17767	0.0474548	
0.0317167	1.16241	0.0431824	
0.0317333	1.14746	0.0421143	
0.03175	1.13373	0.0439453	
0.0317667	1.11908	0.039978	
0.0317833	1.10657	0.0393677	
0.0318	1.09131	0.0437927	
0.0318167	1.0791	0.0427246	
0.0318333	1.06476	0.0442505	
0.03185	1.05011	0.0424194	
0.0318667	1.0379	0.038147	
0.0318833	1.02448	0.0398254	
0.0319	1.01135	0.0462341	
0.0319167	0.998535	0.052948	
0.0319333	0.985718	0.0541687	
0.03195	0.97229	0.0559998	
0.0319667	0.959778	0.0550842	
0.0319833	0.947266	0.0564575	
0.032	0.934448	0.0627136	
0.0320167	0.922852	0.0642395	
0.0320333	0.910034	0.0598145	
0.03205	0.897522	0.0532532	
0.0320667	0.887146	0.0495911	
0.0320833	0.874939	0.0488281	
0.0321	0.862427	0.0489807	
0.0321167	0.852051	0.0456238	
0.0321333	0.840149	0.0444031	
0.03215	0.829163	0.042572	
0.0321667	0.816956	0.0434875	
0.0321833	0.805664	0.045929	
0.0322	0.792542	0.0482178	
0.0322167	0.782166	0.0473022	
0.0322333	0.772705	0.0447083	
0.03225	0.760193	0.0364685	
0.0322667	0.747986	0.03479	
0.0322833	0.73822	0.03479	
0.0323	0.726318	0.0427246	
0.0323167	0.716248	0.0466919	
0.0323333	0.704041	0.0469971	
0.03235	0.693665	0.0492859	
0.0323667	0.681763	0.0489807	
0.0323833	0.671997	0.0473022	
0.0324	0.660706	0.0474548	
0.0324167	0.65033	0.0465393	
0.0324333	0.639343	0.0453186	
0.03245	0.630188	0.0508118	
0.0324667	0.618591	0.0500488	
0.0324833	0.607605	0.0488281	
0.0325	0.598145	0.0453186	
0.0325167	0.588684	0.039978	
0.0325333	0.576477	0.0350952	
0.03255	0.566711	0.0349426	
0.0325667	0.556641	0.0395203	
0.0325833	0.548096	0.0440979	
0.0326	0.53772	0.0444031	
0.0326167	0.529785	0.0442505	
0.0326333	0.518188	0.042572	
0.03265	0.510254	0.0440979	
0.0326667	0.500183	0.0444031	
0.0326833	0.490723	0.0465393	
0.0327	0.482178	0.0495911	
0.0327167	0.473328	0.0489807	
0.0327333	0.463867	0.0488281	
0.03275	0.455933	0.0476074	
0.0327667	0.447998	0.0465393	
0.0327833	0.438843	0.0442505	
0.0328	0.431519	0.0422668	
0.0328167	0.424194	0.0442505	
0.0328333	0.415649	0.0422668	
0.03285	0.40863	0.043335	
0.0328667	0.402527	0.0444031	
0.0328833	0.396118	0.0422668	
0.0329	0.389099	0.0442505	
0.0329167	0.384216	0.0468445	
0.0329333	0.376892	0.0489807	
0.03295	0.372009	0.0465393	
0.0329667	0.366516	0.042572	
0.0329833	0.362854	0.039978	
0.033	0.35614	0.0411987	
0.0330167	0.352173	0.0434875	
0.0330333	0.346985	0.0448608	
0.03305	0.344238	0.0466919	
0.0330667	0.339966	0.0447083	
0.0330833	0.337524	0.0401306	
0.0331	0.334778	0.0352478	
0.0331167	0.331726	0.03479	
0.0331333	0.328979	0.0350952	
0.03315	0.327454	0.0386047	
0.0331667	0.325012	0.0419617	
0.0331833	0.324402	0.0462341	
0.0332	0.323181	0.0509644	
0.0332167	0.322571	0.0520325	
0.0332333	0.321655	0.0538635	
0.03325	0.322266	0.0502014	
0.0332667	0.322266	0.0494385	
0.0332833	0.324402	0.0494385	
0.0333	0.324097	0.0476074	
0.0333167	0.326538	0.0471497	
0.0333333	0.327759	0.0469971	
0.03335	0.32959	0.0489807	
0.0333667	0.330811	0.0512695	
0.0333833	0.334473	0.0454712	
0.0334	0.336914	0.0366211	
0.0334167	0.339355	0.0308228	
0.0334333	0.343018	0.0279236	
0.03345	0.345459	0.0274658	
0.0334667	0.350037	0.0262451	
0.0334833	0.353394	0.0334167	
0.0335	0.357971	0.0408936	
0.0335167	0.361023	0.0422668	
0.0335333	0.365295	0.0424194	
0.03355	0.370483	0.0366211	
0.0335667	0.374146	0.0326538	
0.0335833	0.378418	0.0338745	
0.0336	0.383301	0.0323486	
0.0336167	0.387268	0.0282288	
0.0336333	0.393677	0.0256348	
0.03365	0.39917	0.0297546	
0.0336667	0.403748	0.0346375	
0.0336833	0.408936	0.0349426	
0.0337	0.414429	0.03479	
0.0337167	0.419922	0.032196	
0.0337333	0.426025	0.0337219	
0.03375	0.432434	0.035553	
0.0337667	0.437927	0.0370789	
0.0337833	0.443115	0.035553	
0.0338	0.449829	0.0392151	
0.0338167	0.455933	0.0413513	
0.0338333	0.460815	0.0421143	
0.03385	0.46814	0.045929	
0.0338667	0.474243	0.0466919	
0.0338833	0.480042	0.0427246	
0.0339	0.487366	0.0384521	
0.0339167	0.492554	0.0398254	
0.0339333	0.499878	0.0416565	
0.03395	0.505066	0.0419617	
0.0339667	0.51178	0.0416565	
0.0339833	0.516968	0.0398254	
0.034	0.522766	0.0396729	
0.0340167	0.529175	0.0395203	
0.0340333	0.534363	0.0354004	
0.03405	0.540771	0.0361633	
0.0340667	0.546265	0.03479	
0.0340833	0.553589	0.0346375	
0.0341	0.557861	0.0389099	
0.0341167	0.560608	0.0379944	
0.0341333	0.567322	0.0387573	
0.03415	0.57312	0.038147	
0.0341667	0.577393	0.0372314	
0.0341833	0.582581	0.0350952	
0.0342	0.587769	0.0346375	
0.0342167	0.592957	0.0360107	
0.0342333	0.599365	0.0366211	
0.03425	0.602722	0.0393677	
0.0342667	0.608521	0.0402832	
0.0342833	0.612183	0.0395203	
0.0343	0.618591	0.0357056	
0.0343167	0.624084	0.0343323	
0.0343333	0.627441	0.0350952	
0.03435	0.63385	0.0314331	
0.0343667	0.637817	0.0334167	
0.0343833	0.64209	0.0305176	
0.0344	0.645142	0.0274658	
0.0344167	0.649719	0.0239563	
0.0344333	0.652771	0.0271606	
0.03445	0.656433	0.0352478	
0.0344667	0.660095	0.0352478	
0.0344833	0.663757	0.0323486	
0.0345	0.666199	0.0338745	
0.0345167	0.669556	0.0346375	
0.0345333	0.672302	0.03479	
0.03455	0.674744	0.0331116	
0.0345667	0.677185	0.032196	
0.0345833	0.679321	0.0349426	
0.0346	0.681763	0.0335693	
0.0346167	0.683594	0.0289917	
0.0346333	0.68512	0.0257874	
0.03465	0.687256	0.0256348	
0.0346667	0.688782	0.0288391	
0.0346833	0.690918	0.0318909	
0.0347	0.691528	0.0338745	
0.0347167	0.692139	0.0350952	
0.0347333	0.69397	0.0331116	
0.03475	0.694885	0.0309753	
0.0347667	0.69458	0.032196	
0.0347833	0.694885	0.03479	
0.0348	0.695801	0.0346375	
0.0348167	0.694275	0.0309753	
0.0348333	0.69458	0.0302124	
0.03485	0.694275	0.0320435	
0.0348667	0.692139	0.0312805	
0.0348833	0.689697	0.0318909	
0.0349	0.690002	0.0364685	
0.0349167	0.686646	0.0411987	
0.0349333	0.684204	0.0405884	
0.03495	0.682678	0.0384521	
0.0349667	0.680542	0.0378418	
0.0349833	0.678406	0.0335693	
0.035	0.67627	0.0337219	
0.0350167	0.673828	0.0405884	
0.0350333	0.671082	0.0439453	
0.03505	0.668335	0.0402832	
0.0350667	0.663147	0.037384	
0.0350833	0.660706	0.0370789	
0.0351	0.657043	0.0346375	
0.0351167	0.653992	0.0309753	
0.0351333	0.650635	0.0318909	
0.03515	0.646057	0.0320435	
0.0351667	0.640564	0.0297546	
0.0351833	0.637817	0.0257874	
0.0352	0.633545	0.0209045	
0.0352167	0.628052	0.0219727	
0.0352333	0.621948	0.0271606	
0.03525	0.617065	0.0334167	
0.0352667	0.612488	0.032196	
0.0352833	0.6073	0.0299072	
0.0353	0.601807	0.0273132	
0.0353167	0.594788	0.0256348	
0.0353333	0.5896	0.0228882	
0.03535	0.582886	0.0230408	
0.0353667	0.577698	0.0270081	
0.0353833	0.57251	0.0289917	
0.0354	0.566406	0.0236511	
0.0354167	0.560913	0.0247192	
0.0354333	0.55542	0.0270081	
0.03545	0.549622	0.0274658	
0.0354667	0.543518	0.0238037	
0.0354833	0.538635	0.0244141	
0.0355	0.532227	0.025177	
0.0355167	0.527649	0.0268555	
0.0355333	0.521545	0.0305176	
0.03555	0.515747	0.0323486	
0.0355667	0.509338	0.0366211	
0.0355833	0.502625	0.0376892	
0.0356	0.497742	0.03479	
0.0356167	0.491638	0.030365	
0.0356333	0.485229	0.0257874	
0.03565	0.479736	0.0267029	
0.0356667	0.473022	0.0297546	
0.0356833	0.467224	0.0292969	
0.0357	0.46051	0.0320435	
0.0357167	0.454407	0.0346375	
0.0357333	0.447693	0.0358582	
0.03575	0.440979	0.03479	
0.0357667	0.43396	0.0309753	
0.0357833	0.42572	0.0305176	
0.0358	0.419922	0.0320435	
0.0358167	0.411682	0.0328064	
0.0358333	0.404968	0.0332642	
0.03585	0.397644	0.0325012	
0.0358667	0.390015	0.0320435	
0.0358833	0.38269	0.0343323	
0.0359	0.37323	0.0366211	
0.0359167	0.367126	0.0350952	
0.0359333	0.358887	0.0344849	
0.03595	0.350647	0.0323486	
0.0359667	0.343323	0.0344849	
0.0359833	0.336304	0.0410461	
0.036	0.328369	0.0431824	
0.0360167	0.32135	0.0404358	
0.0360333	0.314026	0.0401306	
0.03605	0.305786	0.0479126	
0.0360667	0.299072	0.0556946	
0.0360833	0.291443	0.0605774	
0.0361	0.284424	0.0584412	
0.0361167	0.276489	0.0572205	
0.0361333	0.269775	0.0605774	
0.03615	0.262451	0.0616455	
0.0361667	0.255127	0.0619507	
0.0361833	0.249634	0.065918	
0.0362	0.240784	0.068512	
0.0362167	0.233459	0.0663757	
0.0362333	0.227661	0.0642395	
0.03625	0.220947	0.0616455	
0.0362667	0.214233	0.0654602	
0.0362833	0.206604	0.0683594	
0.0363	0.19989	0.0650024	
0.0363167	0.193481	0.0639343	
0.0363333	0.186768	0.0656128	
0.03635	0.179749	0.0686646	
0.0363667	0.173645	0.0686646	
0.0363833	0.166016	0.0688171	
0.0364	0.160217	0.0712585	
0.0364167	0.153809	0.0758362	
0.0364333	0.14679	0.0765991	
0.03645	0.141602	0.0744629	
0.0364667	0.135193	0.0715637	
0.0364833	0.129089	0.0694275	
0.0365	0.122375	0.071106	
0.0365167	0.115356	0.0698853	
0.0365333	0.108032	0.0683594	
0.03655	0.102539	0.0650024	
0.0365667	0.0976563	0.065918	
0.0365833	0.090332	0.0683594	
0.0366	0.0839233	0.072937	
0.0366167	0.0787354	0.0695801	
0.0366333	0.0714111	0.0627136	
0.03665	0.0656128	0.059967	
0.0366667	0.0588989	0.0590515	
0.0366833	0.0518799	0.0604248	
0.0367	0.0460815	0.0624084	
0.0367167	0.0396729	0.0637817	
0.0367333	0.0323486	0.0680542	
0.03675	0.0265503	0.0712585	
0.0367667	0.0192261	0.0709534	
0.0367833	0.0134277	0.0648499	
0.0368	0.00701904	0.065918	
0.0368167	0.000610352	0.067749	
0.0368333	-0.00549316	0.0665283	
0.03685	-0.012207	0.0666809	
0.0368667	-0.0192261	0.0663757	
0.0368833	-0.0244141	0.0671387	
0.0369	-0.0311279	0.068512	
0.0369167	-0.0378418	0.0663757	
0.0369333	-0.0445557	0.0648499	
0.03695	-0.0494385	0.0596619	
0.0369667	-0.0561523	0.0572205	
0.0369833	-0.0610352	0.0590515	
0.037	-0.0683594	0.0627136	
0.0370167	-0.0732422	0.0639343	
0.0370333	-0.0787354	0.0679016	
0.03705	-0.0854492	0.065918	
0.0370667	-0.0909424	0.0679016	
0.0370833	-0.0952148	0.067749	
0.0371	-0.101929	0.0668335	
0.0371167	-0.106506	0.0689697	
0.0371333	-0.11322	0.0709534	
0.03715	-0.117798	0.0688171	
0.0371667	-0.122986	0.0669861	
0.0371833	-0.127258	0.0680542	
0.0372	-0.132751	0.0691223	
0.0372167	-0.137939	0.0704956	
0.0372333	-0.142212	0.0689697	
0.03725	-0.1474	0.0672913	
0.0372667	-0.152283	0.0665283	
0.0372833	-0.157471	0.0663757	
0.0373	-0.161743	0.0648499	
0.0373167	-0.166626	0.0640869	
0.0373333	-0.17334	0.0621033	
0.03735	-0.178223	0.06073	
0.0373667	-0.184021	0.0634766	
0.0373833	-0.189514	0.0674438	
0.0374	-0.194092	0.0688171	
0.0374167	-0.198975	0.0665283	
0.0374333	-0.204773	0.0642395	
0.03745	-0.209656	0.0622559	
0.0374667	-0.214539	0.0614929	
0.0374833	-0.220947	0.057373	
0.0375	-0.22522	0.0566101	
0.0375167	-0.229797	0.0648499	
0.0375333	-0.234985	0.0700378	
0.03755	-0.240173	0.071106	
0.0375667	-0.245667	0.0672913	
0.0375833	-0.249329	0.0704956	
0.0376	-0.255127	0.0732422	
0.0376167	-0.257568	0.0712585	
0.0376333	-0.262146	0.0694275	
0.03765	-0.267029	0.0727844	
0.0376667	-0.270996	0.0701904	
0.0376833	-0.274963	0.065155	
0.0377	-0.280151	0.0640869	
0.0377167	-0.284424	0.0637817	
0.0377333	-0.289001	0.0617981	
0.03775	-0.292053	0.0593567	
0.0377667	-0.296936	0.0552368	
0.0377833	-0.299377	0.0541687	
0.0378	-0.302734	0.0541687	
0.0378167	-0.306396	0.0561523	
0.0378333	-0.310974	0.0605774	
0.03785	-0.314331	0.0611877	
0.0378667	-0.317383	0.0588989	
0.0378833	-0.32074	0.0592041	
0.0379	-0.324097	0.0631714	
0.0379167	-0.326843	0.062561	
0.0379333	-0.330811	0.0630188	
0.03795	-0.334778	0.0613403	
0.0379667	-0.338745	0.0576782	
0.0379833	-0.340576	0.0579834	
0.038	-0.343933	0.0627136	
0.0380167	-0.346375	0.0660706	
0.0380333	-0.350952	0.0640869	
0.03805	-0.353088	0.0654602	
0.0380667	-0.357361	0.0645447	
0.0380833	-0.360718	0.0596619	
0.0381	-0.363464	0.0546265	
0.0381167	-0.365906	0.050354	
0.0381333	-0.370178	0.0488281	
0.03815	-0.37323	0.0489807	
0.0381667	-0.375977	0.0521851	
0.0381833	-0.380249	0.0582886	
0.0382	-0.382996	0.0628662	
0.0382167	-0.386658	0.0639343	
0.0382333	-0.388184	0.059967	
0.03825	-0.392151	0.0575256	
0.0382667	-0.394897	0.0549316	
0.0382833	-0.398254	0.055542	
0.0383	-0.400085	0.0587463	
0.0383167	-0.404663	0.0576782	
0.0383333	-0.407104	0.0590515	
0.03835	-0.410461	0.057373	
0.0383667	-0.412903	0.0567627	
0.0383833	-0.417786	0.057373	
0.0384	-0.419617	0.0643921	
0.0384167	-0.4245	0.0663757	
0.0384333	-0.426636	0.0668335	
0.03845	-0.429688	0.0672913	
0.0384667	-0.431519	0.0666809	
0.0384833	-0.436707	0.0683594	
0.0385	-0.439148	0.0666809	
0.0385167	-0.441284	0.0643921	
0.0385333	-0.445557	0.0616455	
0.03855	-0.448608	0.0570679	
0.0385667	-0.45166	0.0602722	
0.0385833	-0.454407	0.067749	
0.0386	-0.458679	0.0694275	
0.0386167	-0.460815	0.0646973	
0.0386333	-0.463867	0.0598145	
0.03865	-0.466309	0.0587463	
0.0386667	-0.470581	0.0610352	
0.0386833	-0.473328	0.0637817	
0.0387	-0.477295	0.0660706	
0.0387167	-0.480347	0.0656128	
0.0387333	-0.484009	0.0688171	
0.03875	-0.48645	0.0733948	
0.0387667	-0.490112	0.0692749	
0.0387833	-0.493774	0.0621033	
0.0388	-0.496521	0.0593567	
0.0388167	-0.500488	0.0668335	
0.0388333	-0.50415	0.0752258	
0.03885	-0.505371	0.0802612	
0.0388667	-0.508728	0.0811768	
0.0388833	-0.51239	0.0814819	
0.0389	-0.515442	0.085144	
0.0389167	-0.518188	0.0904846	
0.0389333	-0.521545	0.0927734	
0.03895	-0.524902	0.091095	
0.0389667	-0.527039	0.0920105	
0.0389833	-0.528259	0.101318	
0.039	-0.531921	0.105286	
0.0390167	-0.533142	0.103455	
0.0390333	-0.537109	0.10498	
0.03905	-0.538025	0.107574	
0.0390667	-0.540466	0.108948	
0.0390833	-0.543213	0.109711	
0.0391	-0.542908	0.113983	
0.0391167	-0.545044	0.113525	
0.0391333	-0.546875	0.108643	
0.03915	-0.547791	0.105286	
0.0391667	-0.550842	0.105286	
0.0391833	-0.551758	0.108032	
0.0392	-0.552979	0.113678	
0.0392167	-0.554199	0.119019	
0.0392333	-0.557556	0.120087	
0.03925	-0.557861	0.12146	
0.0392667	-0.559998	0.12085	
0.0392833	-0.563049	0.124664	
0.0393	-0.563354	0.1297	
0.0393167	-0.566101	0.135803	
0.0393333	-0.569153	0.139008	
0.03935	-0.571899	0.141754	
0.0393667	-0.57251	0.146332	
0.0393833	-0.574341	0.147247	
0.0394	-0.577393	0.147247	
0.0394167	-0.578613	0.144958	
0.0394333	-0.58075	0.144043	
0.03945	-0.583496	0.138855	
0.0394667	-0.586548	0.129852	
0.0394833	-0.588989	0.127563	
0.0395	-0.592651	0.125275	
0.0395167	-0.592651	0.121002	
0.0395333	-0.596313	0.114288	
0.03955	-0.596313	0.110779	
0.0395667	-0.599365	0.114288	
0.0395833	-0.601501	0.116425	
0.0396	-0.603638	0.113831	
0.0396167	-0.604553	0.112915	
0.0396333	-0.606079	0.115051	
0.03965	-0.609741	0.111084	
0.0396667	-0.611572	0.104065	
0.0396833	-0.613098	0.101166	
0.0397	-0.614624	0.098114	
0.0397167	-0.61676	0.0999451	
0.0397333	-0.620117	0.100555	
0.03975	-0.622864	0.0923157	
0.0397667	-0.624084	0.0843811	
0.0397833	-0.627747	0.0830078	
0.0398	-0.630493	0.0914001	
0.0398167	-0.63324	0.0935364	
0.0398333	-0.634155	0.0932312	
0.03985	-0.637512	0.092926	
0.0398667	-0.640564	0.0904846	
0.0398833	-0.643005	0.0883484	
0.0399	-0.644836	0.0801086	
0.0399167	-0.646362	0.0718689	
0.0399333	-0.648499	0.0662231	
0.03995	-0.652161	0.0605774	
0.0399667	-0.654602	0.0631714	
0.0399833	-0.656128	0.0645447	
0.04	-0.658875	0.0654602	
0.0400167	-0.660706	0.0643921	
0.0400333	-0.662537	0.0602722	
0.04005	-0.665283	0.0628662	
0.0400667	-0.667419	0.0663757	
0.0400833	-0.671082	0.0662231	
0.0401	-0.673218	0.0662231	
0.0401167	-0.675659	0.0604248	
0.0401333	-0.67749	0.0492859	
0.04015	-0.679016	0.0419617	
0.0401667	-0.682068	0.0434875	
0.0401833	-0.684204	0.0424194	
0.0402	-0.687256	0.038147	
0.0402167	-0.689697	0.0335693	
0.0402333	-0.691833	0.0309753	
0.04025	-0.692749	0.0308228	
0.0402667	-0.69519	0.0335693	
0.0402833	-0.696411	0.03479	
0.0403	-0.699463	0.0346375	
0.0403167	-0.700073	0.0309753	
0.0403333	-0.701904	0.0280762	
0.04035	-0.70343	0.0253296	
0.0403667	-0.705261	0.025177	
0.0403833	-0.707092	0.0270081	
0.0404	-0.709229	0.0209045	
0.0404167	-0.71106	0.0204468	
0.0404333	-0.711975	0.0241089	
0.04045	-0.714417	0.0267029	
0.0404667	-0.714722	0.0288391	
0.0404833	-0.717163	0.0305176	
0.0405	-0.718994	0.0306702	
0.0405167	-0.719299	0.0294495	
0.0405333	-0.720825	0.0271606	
0.04055	-0.721741	0.0311279	
0.0405667	-0.723267	0.0361633	
0.0405833	-0.726318	0.0349426	
0.0406	-0.726929	0.0283813	
0.0406167	-0.728455	0.025177	
0.0406333	-0.730896	0.0244141	
0.04065	-0.733643	0.0221252	
0.0406667	-0.735779	0.0222778	
0.0406833	-0.738525	0.0241089	
0.0407	-0.739136	0.0204468	
0.0407167	-0.741882	0.0158691	
0.0407333	-0.744629	0.0172424	
0.04075	-0.746155	0.0282288	
0.0407667	-0.748291	0.039978	
0.0407833	-0.750122	0.0416565	
0.0408	-0.752869	0.0396729	
0.0408167	-0.754089	0.0376892	
0.0408333	-0.756836	0.0349426	
0.04085	-0.760498	0.032959	
0.0408667	-0.761414	0.0366211	
0.0408833	-0.765076	0.0413513	
0.0409	-0.767822	0.0444031	
0.0409167	-0.769043	0.0450134	
0.0409333	-0.772095	0.0509644	
0.04095	-0.773621	0.0559998	
0.0409667	-0.777283	0.0585938	
0.0409833	-0.778503	0.0547791	
0.041	-0.78186	0.0506592	
0.0410167	-0.783386	0.0535583	
0.0410333	-0.787354	0.0601196	
0.04105	-0.787964	0.0656128	
0.0410667	-0.789795	0.0648499	
0.0410833	-0.791321	0.0642395	
0.0411	-0.794067	0.0613403	
0.0411167	-0.795593	0.055542	
0.0411333	-0.797119	0.0576782	
0.04115	-0.798035	0.0585938	
0.0411667	-0.800171	0.0593567	
0.0411833	-0.802307	0.0610352	
0.0412	-0.804749	0.0610352	
0.0412167	-0.807495	0.0604248	
0.0412333	-0.808105	0.0588989	
0.04125	-0.809631	0.0549316	
0.0412667	-0.812988	0.0521851	
0.0412833	-0.814819	0.045166	
0.0413	-0.817871	0.0337219	
0.0413167	-0.820007	0.0244141	
0.0413333	-0.821838	0.0170898	
0.04135	-0.822754	0.0154114	
0.0413667	-0.825195	0.0152588	
0.0413833	-0.829468	0.0172424	
0.0414	-0.829773	0.0112915	
0.0414167	-0.83374	0.0120544	
0.0414333	-0.835571	0.0149536	
0.04145	-0.837402	0.0215149	
0.0414667	-0.839844	0.0369263	
0.0414833	-0.843811	0.0537109	
0.0415	-0.844421	0.071106	
0.0415167	-0.848694	0.0927734	
0.0415333	-0.851135	0.115051	
0.04155	-0.854187	0.134583	
0.0415667	-0.856323	0.154266	
0.0415833	-0.857849	0.184021	
0.0416	-0.860901	0.222473	
0.0416167	-0.864258	0.267792	
0.0416333	-0.866394	0.316925	
0.04165	-0.869446	0.366364	
0.0416667	-0.871887	0.417175	
0.0416833	-0.873718	0.466614	
0.0417	-0.878296	0.513306	
0.0417167	-0.880737	0.557556	
0.0417333	-0.882874	0.608215	
0.04175	-0.884094	0.655212	
0.0417667	-0.888062	0.69931	
0.0417833	-0.889282	0.744324	
0.0418	-0.891418	0.783386	
0.0418167	-0.895081	0.810547	
0.0418333	-0.895996	0.841064	
0.04185	-0.899963	0.872345	
0.0418667	-0.90271	0.898895	
0.0418833	-0.904236	0.922546	
0.0419	-0.905762	0.94223	
0.0419167	-0.908813	0.947723	
0.0419333	-0.910339	0.935516	
0.04195	-0.912476	0.914459	
0.0419667	-0.915833	0.900574	
0.0419833	-0.917358	0.890656	
0.042	-0.918579	0.882568	
0.0420167	-0.920715	0.862732	
0.0420333	-0.921936	0.826569	
0.04205	-0.924988	0.772095	
0.0420667	-0.926819	0.716248	
0.0420833	-0.929871	0.667572	
0.0421	-0.932617	0.61676	
0.0421167	-0.935669	0.565643	
0.0421333	-0.93689	0.526581	
0.04215	-0.939636	0.502625	
0.0421667	-0.941772	0.482788	
0.0421833	-0.944519	0.45929	
0.0422	-0.947571	0.433807	
0.0422167	-0.948792	0.399475	
0.0422333	-0.950928	0.362244	
0.04225	-0.95459	0.327911	
0.0422667	-0.956726	0.293427	
0.0422833	-0.959167	0.26001	
0.0423	-0.961914	0.230255	
0.0423167	-0.96405	0.209503	
0.0423333	-0.966492	0.198212	
0.04235	-0.966797	0.187531	
0.0423667	-0.969849	0.174255	
0.0423833	-0.97168	0.164032	
0.0424	-0.974426	0.155487	
0.0424167	-0.978088	0.153046	
0.0424333	-0.979919	0.151978	
0.04245	-0.982056	0.151978	
0.0424667	-0.984802	0.152435	
0.0424833	-0.986938	0.15152	
0.0425	-0.98938	0.147858	
0.0425167	-0.992432	0.14267	
0.0425333	-0.993958	0.134125	
0.04255	-0.997009	0.130615	
0.0425667	-0.99823	0.127411	
0.0425833	-1.00189	0.122681	
0.0426	-1.00342	0.116272	
0.0426167	-1.00708	0.113068	
0.0426333	-1.00861	0.112915	
0.04265	-1.01105	0.113068	
0.0426667	-1.01318	0.114441	
0.0426833	-1.01379	0.114746	
0.0427	-1.01624	0.111084	
0.0427167	-1.01807	0.106506	
0.0427333	-1.0202	0.103302	
0.04275	-1.02264	0.101318	
0.0427667	-1.02386	0.0965881	
0.0427833	-1.02661	0.0973511	
0.0428	-1.02783	0.0999451	
0.0428167	-1.03088	0.100708	
0.0428333	-1.03302	0.0949097	
0.04285	-1.03394	0.092926	
0.0428667	-1.03699	0.0892639	
0.0428833	-1.03851	0.0862122	
0.0429	-1.03943	0.0834656	
0.0429167	-1.04065	0.0810242	
0.0429333	-1.04156	0.0784302	
0.04295	-1.0434	0.0746155	
0.0429667	-1.04248	0.0720215	
0.0429833	-1.04614	0.0672913	
0.043	-1.04828	0.065918	
0.0430167	-1.04828	0.0679016	
0.0430333	-1.04797	0.0645447	
0.04305	-1.05042	0.0578308	
0.0430667	-1.05042	0.0547791	
0.0430833	-1.05316	0.0526428	
0.0431	-1.05255	0.0537109	
0.0431167	-1.05255	0.0595093	
0.0431333	-1.0556	0.0616455	
0.04315	-1.0553	0.0645447	
0.0431667	-1.05865	0.0726318	
0.0431833	-1.05835	0.078125	
0.0432	-1.05988	0.0747681	
0.0432167	-1.06171	0.0700378	
0.0432333	-1.06262	0.0715637	
0.04325	-1.06506	0.0735474	
0.0432667	-1.06689	0.0737	
0.0432833	-1.0675	0.0701904	
0.0433	-1.06812	0.065155	
0.0433167	-1.07086	0.0662231	
0.0433333	-1.07269	0.0666809	
0.04335	-1.07269	0.0688171	
0.0433667	-1.07513	0.0689697	
0.0433833	-1.07727	0.0691223	
0.0434	-1.07788	0.0695801	
0.0434167	-1.08093	0.0674438	
0.0434333	-1.08337	0.0646973	
0.04345	-1.08551	0.0643921	
0.0434667	-1.08704	0.0643921	
0.0434833	-1.08887	0.0619507	
0.0435	-1.09039	0.0596619	
0.0435167	-1.09161	0.0611877	
0.0435333	-1.09253	0.0619507	
0.04355	-1.09436	0.0656128	
0.0435667	-1.09467	0.0723267	
0.0435833	-1.09711	0.0735474	
0.0436	-1.09741	0.0717163	
0.0436167	-1.09772	0.071106	
0.0436333	-1.09894	0.0666809	
0.04365	-1.09985	0.0643921	
0.0436667	-1.09955	0.0666809	
0.0436833	-1.10107	0.0675964	
0.0437	-1.10168	0.0701904	
0.0437167	-1.10199	0.0691223	
0.0437333	-1.10382	0.0686646	
0.04375	-1.10657	0.0643921	
0.0437667	-1.10687	0.0614929	
0.0437833	-1.10809	0.0640869	
0.0438	-1.10931	0.0698853	
0.0438167	-1.11145	0.0753784	
0.0438333	-1.11176	0.0758362	
0.04385	-1.11359	0.0741577	
0.0438667	-1.11572	0.0764465	
0.0438833	-1.11694	0.0764465	
0.0439	-1.11908	0.0723267	
0.0439167	-1.1203	0.0715637	
0.0439333	-1.12122	0.0738525	
0.04395	-1.12427	0.0779724	
0.0439667	-1.12701	0.0747681	
0.0439833	-1.12793	0.0704956	
0.044	-1.12885	0.0688171	
0.0440167	-1.13129	0.0671387	
0.0440333	-1.13281	0.0686646	
0.04405	-1.13617	0.0689697	
0.0440667	-1.13647	0.0708008	
0.0440833	-1.13922	0.0714111	
0.0441	-1.14105	0.072937	
0.0441167	-1.14349	0.0738525	
0.0441333	-1.14594	0.0747681	
0.04415	-1.14716	0.0741577	
0.0441667	-1.1496	0.0758362	
0.0441833	-1.15112	0.0737	
0.0442	-1.15326	0.0695801	
0.0442167	-1.15326	0.0672913	
0.0442333	-1.15601	0.0746155	
0.04425	-1.15845	0.0761414	
0.0442667	-1.16028	0.0738525	
0.0442833	-1.16058	0.0738525	
0.0443	-1.1618	0.0735474	
0.0443167	-1.16333	0.0737	
0.0443333	-1.16608	0.0743103	
0.04435	-1.16699	0.0776672	
0.0443667	-1.17004	0.0772095	
0.0443833	-1.17126	0.0761414	
0.0444	-1.17157	0.0778198	
0.0444167	-1.17279	0.0802612	
0.0444333	-1.17493	0.0811768	
0.04445	-1.17676	0.08255	
0.0444667	-1.17798	0.0817871	
0.0444833	-1.17828	0.0791931	
0.0445	-1.17981	0.0764465	
0.0445167	-1.18225	0.0761414	
0.0445333	-1.18469	0.0759888	
0.04455	-1.18561	0.0764465	
0.0445667	-1.18683	0.0765991	
0.0445833	-1.18713	0.078125	
0.0446	-1.1911	0.0787354	
0.0446167	-1.19141	0.0802612	
0.0446333	-1.19415	0.0828552	
0.04465	-1.19507	0.0857544	
0.0446667	-1.19659	0.0920105	
0.0446833	-1.19751	0.0872803	
0.0447	-1.19965	0.0839233	
0.0447167	-1.20178	0.087738	
0.0447333	-1.2027	0.0906372	
0.04475	-1.20483	0.0942993	
0.0447667	-1.20483	0.0920105	
0.0447833	-1.20605	0.0901794	
0.0448	-1.20697	0.085144	
0.0448167	-1.20972	0.0878906	
0.0448333	-1.21002	0.0921631	
0.04485	-1.21216	0.0935364	
0.0448667	-1.21368	0.0933838	
0.0448833	-1.21582	0.0917053	
0.0449	-1.21704	0.0917053	
0.0449167	-1.2207	0.0978088	
0.0449333	-1.22253	0.100403	
0.04495	-1.22437	0.100708	
0.0449667	-1.22681	0.0982666	
0.0449833	-1.22925	0.100403	
0.045	-1.22955	0.106964	
0.0450167	-1.23169	0.116272	
0.0450333	-1.23413	0.118103	
0.04505	-1.23688	0.111694	
0.0450667	-1.23871	0.108337	
0.0450833	-1.24084	0.103607	
0.0451	-1.24298	0.101013	
0.0451167	-1.2439	0.103149	
0.0451333	-1.24603	0.106659	
0.04515	-1.24878	0.108643	
0.0451667	-1.25061	0.110016	
0.0451833	-1.25275	0.113983	
0.0452	-1.25336	0.113068	
0.0452167	-1.25458	0.110931	
0.0452333	-1.25641	0.109863	
0.04525	-1.25854	0.112	
0.0452667	-1.26038	0.112762	
0.0452833	-1.26068	0.115051	
0.0453	-1.26282	0.113068	
0.0453167	-1.26526	0.115509	
0.0453333	-1.26587	0.119629	
0.04535	-1.26801	0.121002	
0.0453667	-1.27136	0.118408	
0.0453833	-1.27106	0.113373	
0.0454	-1.27289	0.110779	
0.0454167	-1.27502	0.114899	
0.0454333	-1.27625	0.117493	
0.04545	-1.27838	0.116577	
0.0454667	-1.2793	0.116119	
0.0454833	-1.28052	0.113525	
0.0455	-1.28235	0.1091	
0.0455167	-1.28479	0.106354	
0.0455333	-1.2854	0.101471	
0.04555	-1.28693	0.0984192	
0.0455667	-1.28815	0.0996399	
0.0455833	-1.28998	0.101776	
0.0456	-1.29272	0.106506	
0.0456167	-1.29272	0.10376	
0.0456333	-1.29425	0.0990295	
0.04565	-1.29547	0.102692	
0.0456667	-1.29517	0.108795	
0.0456833	-1.29669	0.112915	
0.0457	-1.29791	0.115662	
0.0457167	-1.29761	0.117645	
0.0457333	-1.29822	0.115814	
0.04575	-1.29791	0.108948	
0.0457667	-1.29822	0.105591	
0.0457833	-1.29791	0.1091	
0.0458	-1.29547	0.114136	
0.0458167	-1.29456	0.113831	
0.0458333	-1.29333	0.114594	
0.04585	-1.2912	0.113678	
0.0458667	-1.28876	0.109253	
0.0458833	-1.28571	0.108032	
0.0459	-1.28235	0.110016	
0.0459167	-1.27899	0.109711	
0.0459333	-1.27472	0.110474	
0.04595	-1.27014	0.116119	
0.0459667	-1.26556	0.118256	
0.0459833	-1.26007	0.113831	
0.046	-1.25275	0.1091	
0.0460167	-1.24603	0.112	
0.0460333	-1.23749	0.116882	
0.04605	-1.2265	0.115662	
0.0460667	-1.21643	0.113678	
0.0460833	-1.20483	0.116882	
0.0461	-1.19324	0.11795	
0.0461167	-1.18073	0.115814	
0.0461333	-1.16516	0.11261	
0.04615	-1.14929	0.110474	
0.0461667	-1.1319	0.10849	
0.0461833	-1.11359	0.108185	
0.0462	-1.09589	0.101776	
0.0462167	-1.07513	0.100403	
0.0462333	-1.05408	0.0952148	
0.04625	-1.03119	0.0956726	
0.0462667	-1.00952	0.101624	
0.0462833	-0.983887	0.102692	
0.0463	-0.956421	0.103302	
0.0463167	-0.930786	0.107269	
0.0463333	-0.9021	0.109558	
0.04635	-0.871277	0.110321	
0.0463667	-0.839539	0.11322	
0.0463833	-0.807495	0.115051	
0.0464	-0.77179	0.111237	
0.0464167	-0.735779	0.104065	
0.0464333	-0.700073	0.0991821	
0.04645	-0.661011	0.0942993	
0.0464667	-0.621033	0.093689	
0.0464833	-0.581055	0.0971985	
0.0465	-0.537415	0.0987244	
0.0465167	-0.49469	0.0949097	
0.0465333	-0.449219	0.0907898	
0.04655	-0.403137	0.0862122	
0.0465667	-0.35675	0.0796509	
0.0465833	-0.309448	0.0790405	
0.0466	-0.26123	0.0846863	
0.0466167	-0.211487	0.0906372	
0.0466333	-0.160522	0.0912476	
0.04665	-0.108032	0.0906372	
0.0466667	-0.055542	0.0949097	
0.0466833	-0.00305176	0.0946045	
0.0467	0.0527954	0.0958252	
0.0467167	0.106506	0.0979614	
0.0467333	0.162354	0.0953674	
0.04675	0.219116	0.0912476	
0.0467667	0.275879	0.0872803	
0.0467833	0.332336	0.0871277	
0.0468	0.391235	0.0862122	
0.0468167	0.447998	0.0900269	
0.0468333	0.505676	0.0924683	
0.04685	0.562744	0.0909424	
0.0468667	0.621033	0.0840759	
0.0468833	0.67749	0.0831604	
0.0469	0.733948	0.087738	
0.0469167	0.791321	0.0863647	
0.0469333	0.847168	0.0817871	
0.04695	0.901489	0.0770569	
0.0469667	0.955505	0.0761414	
0.0469833	1.01013	0.0756836	
0.047	1.06354	0.0706482	
0.0470167	1.11511	0.0688171	
0.0470333	1.16669	0.0669861	
0.04705	1.21582	0.0663757	
0.0470667	1.26709	0.0648499	
0.0470833	1.3147	0.0630188	
0.0471	1.36322	0.0610352	
0.0471167	1.40839	0.0587463	
0.0471333	1.45416	0.055542	
0.04715	1.49811	0.0567627	
0.0471667	1.53992	0.0570679	
0.0471833	1.58264	0.0563049	
0.0472	1.62323	0.0590515	
0.0472167	1.66382	0.0630188	
0.0472333	1.70135	0.0640869	
0.04725	1.73859	0.062561	
0.0472667	1.7746	0.065918	
0.0472833	1.80939	0.0675964	
0.0473	1.84265	0.0683594	
0.0473167	1.87378	0.0639343	
0.0473333	1.90582	0.0575256	
0.04735	1.93481	0.052948	
0.0473667	1.96381	0.0556946	
0.0473833	1.99127	0.0567627	
0.0474	2.01752	0.0587463	
0.0474167	2.04193	0.0592041	
0.0474333	2.06665	0.0610352	
0.04745	2.08832	0.0672913	
0.0474667	2.10846	0.0732422	
0.0474833	2.1283	0.0779724	
0.0475	2.14844	0.0743103	
0.0475167	2.16553	0.0692749	
0.0475333	2.18292	0.0688171	
0.04755	2.19818	0.0671387	
0.0475667	2.21283	0.0662231	
0.0475833	2.22656	0.0674438	
0.0476	2.23846	0.0640869	
0.0476167	2.24976	0.0637817	
0.0476333	2.26074	0.067749	
0.04765	2.26898	0.0686646	
0.0476667	2.27783	0.0671387	
0.0476833	2.28333	0.0657654	
0.0477	2.29065	0.0645447	
0.0477167	2.29584	0.0735474	
0.0477333	2.30103	0.0733948	
0.04775	2.30347	0.0715637	
0.0477667	2.30652	0.072937	
0.0477833	2.30652	0.0717163	
0.0478	2.30682	0.0675964	
0.0478167	2.30713	0.0665283	
0.0478333	2.30621	0.0708008	
0.04785	2.30255	0.0733948	
0.0478667	2.30042	0.0775146	
0.0478833	2.29736	0.0785828	
0.0479	2.29248	0.080719	
0.0479167	2.28729	0.0875854	
0.0479333	2.28088	0.091095	
0.04795	2.27386	0.0907898	
0.0479667	2.26685	0.0837708	
0.0479833	2.25739	0.0813293	
0.048	2.24854	0.0785828	
0.0480167	2.23816	0.0801086	
0.0480333	2.22809	0.0788879	
0.04805	2.21527	0.0804138	
0.0480667	2.20398	0.0830078	
0.0480833	2.19238	0.0860596	
0.0481	2.18018	0.0839233	
0.0481167	2.16461	0.0753784	
0.0481333	2.15302	0.0718689	
0.04815	2.13806	0.0735474	
0.0481667	2.1225	0.0759888	
0.0481833	2.10846	0.0776672	
0.0482	2.09167	0.0802612	
0.0482167	2.07733	0.0813293	
0.0482333	2.05933	0.0836182	
0.04825	2.04315	0.0840759	
0.0482667	2.02759	0.0854492	
0.0482833	2.0108	0.0816345	
0.0483	1.99402	0.0787354	
0.0483167	1.97693	0.0770569	
0.0483333	1.95953	0.0759888	
0.04835	1.94031	0.0775146	
0.0483667	1.92413	0.0822449	
0.0483833	1.90582	0.0828552	
0.0484	1.88751	0.0802612	
0.0484167	1.87073	0.0817871	
0.0484333	1.85211	0.083313	
0.04845	1.8338	0.0816345	
0.0484667	1.81519	0.0787354	
0.0484833	1.79779	0.0790405	
0.0485	1.7807	0.0811768	
0.0485167	1.7627	0.0813293	
0.0485333	1.74438	0.0750732	
0.04855	1.72668	0.0660706	
0.0485667	1.70898	0.062561	
0.0485833	1.69128	0.0675964	
0.0486	1.67297	0.0778198	
0.0486167	1.65527	0.0912476	
0.0486333	1.63788	0.108032	
0.04865	1.61896	0.127411	
0.0486667	1.60156	0.144958	
0.0486833	1.58417	0.153503	
0.0487	1.56738	0.158844	
0.0487167	1.54999	0.163727	
0.0487333	1.53046	0.168762	
0.04875	1.51367	0.182037	
0.0487667	1.49628	0.215149	
0.0487833	1.47888	0.252533	
0.0488	1.4621	0.283203	
0.0488167	1.4444	0.308533	
0.0488333	1.427	0.326385	
0.04885	1.40808	0.339508	
0.0488667	1.3916	0.349731	
0.0488833	1.37573	0.369873	
0.0489	1.35712	0.395203	
0.0489167	1.33972	0.414124	
0.0489333	1.32294	0.431671	
0.04895	1.30524	0.441895	
0.0489667	1.29059	0.437012	
0.0489833	1.27289	0.419006	
0.049	1.2561	0.397797	
0.0490167	1.23932	0.390625	
0.0490333	1.22375	0.399628	
0.04905	1.2085	0.401764	
0.0490667	1.19232	0.378876	
0.0490833	1.17737	0.335083	
0.0491	1.16089	0.296783	
0.0491167	1.14594	0.276642	
0.0491333	1.13129	0.265503	
0.04915	1.11603	0.247955	
0.0491667	1.10199	0.222168	
0.0491833	1.08704	0.192566	
0.0492	1.07239	0.155487	
0.0492167	1.05865	0.111389	
0.0492333	1.04492	0.0656128	
0.04925	1.0318	0.0279236	
0.0492667	1.01868	-0.000457764	
0.0492833	1.00586	-0.0192261	
0.0493	0.992432	-0.03479	
0.0493167	0.978699	-0.0617981	
0.0493333	0.966492	-0.0968933	
0.04935	0.954285	-0.118713	
0.0493667	0.943909	-0.115356	
0.0493833	0.932312	-0.087738	
0.0494	0.922852	-0.052948	
0.0494167	0.91156	-0.0270081	
0.0494333	0.90332	-0.0241089	
0.04945	0.894165	-0.0401306	
0.0494667	0.886536	-0.0613403	
0.0494833	0.87677	-0.0733948	
0.0495	0.870056	-0.0772095	
0.0495167	0.864563	-0.0695801	
0.0495333	0.85968	-0.0630188	
0.04955	0.854797	-0.0498962	
0.0495667	0.849915	-0.0352478	
0.0495833	0.847778	-0.0294495	
0.0496	0.845032	-0.0326538	
0.0496167	0.844116	-0.0312805	
0.0496333	0.845032	-0.0062561	
0.04965	0.845947	0.0357056	
0.0496667	0.848694	0.050354	
0.0496833	0.852661	0.0866699	
0.0497	0.857544	0.0997925	
0.0497167	0.866089	0.0738525	
0.0497333	0.873718	0.0492859	
0.04975	0.88562	0.06073	
0.0497667	0.898438	0.0776672	
0.0497833	0.913696	0.0756836	
0.0498	0.92926	0.0593567	
0.0498167	0.947571	0.0480652	
0.0498333	0.967102	0.0386047	
0.04985	0.988464	0.0239563	
0.0498667	1.01227	-0.0120544	
0.0498833	1.03424	-0.0582886	
0.0499	1.06201	-0.0930786	
0.0499167	1.08917	-0.10376	
0.0499333	1.11694	-0.100555	
0.04995	1.14868	-0.0975037	
0.0499667	1.18011	-0.0990295	
0.0499833	1.21185	-0.0924683	
0.05	1.24786	-0.0804138	
0.0500167	1.28265	-0.0686646	
0.0500333	1.31866	-0.0352478	
0.05005	1.35712	-0.000915527	
0.0500667	1.39557	0.0363159	
0.0500833	1.43646	0.0498962	
0.0501	1.47705	0.0482178	
0.0501167	1.51855	0.0593567	
0.0501333	1.56219	0.0865173	
0.05015	1.60706	0.171356	
0.0501667	1.651	0.415649	
0.0501833	1.69678	0.590668	
0.0502	1.74377	0.519104	
0.0502167	1.78986	0.374908	
0.0502333	1.83624	0.291901	
0.05025	1.88324	0.267181	
0.0502667	1.92993	0.262299	
0.0502833	1.97784	0.247192	
0.0503	2.02454	0.233154	
0.0503167	2.07275	0.223236	
0.0503333	2.11853	0.208893	
0.05035	2.16431	0.189514	
0.0503667	2.20795	0.17746	
0.0503833	2.25128	0.157928	
0.0504	2.29553	0.142365	
0.0504167	2.30774	0.127716	
0.0504333	2.30865	0.120392	
0.05045	2.30713	0.11322	
0.0504667	2.30743	0.0857544	
0.0504833	2.30713	0.0669861	
0.0505	2.30743	0.0683594	
0.0505167	2.30804	0.0886536	
0.0505333	2.30743	0.10437	
0.05055	2.30743	0.127106	
0.0505667	2.30743	0.148315	
0.0505833	2.30713	0.158844	
0.0506	2.30743	0.163727	
0.0506167	2.30713	0.167847	
0.0506333	2.30682	0.167236	
0.05065	2.30682	0.173035	
0.0506667	2.30743	0.187378	
0.0506833	2.30652	0.215607	
0.0507	2.30713	0.269318	
0.0507167	2.30652	0.343018	
0.0507333	2.30652	0.389709	
0.05075	2.30682	0.378723	
0.0507667	2.30682	0.350189	
0.0507833	2.30591	0.330353	
0.0508	2.30652	0.337524	
0.0508167	2.30621	0.368347	
0.0508333	2.30652	0.401154	
0.05085	2.30621	0.384521	
0.0508667	2.30621	0.359039	
0.0508833	2.30652	0.328979	
0.0509	2.30652	0.305786	
0.0509167	2.30652	0.307312	
0.0509333	2.30682	0.347595	
0.05095	2.3056	0.3508	
0.0509667	2.3056	0.339203	
0.0509833	2.3056	0.328979	
0.051	2.3053	0.313873	
0.0510167	2.30591	0.288696	
0.0510333	2.30591	0.263062	
0.05105	2.30621	0.248566	
0.0510667	2.30621	0.237427	
0.0510833	2.3053	0.238037	
0.0511	2.3053	0.252075	
0.0511167	2.30621	0.230408	
0.0511333	2.30591	0.22049	
0.05115	2.3056	0.225677	
0.0511667	2.30591	0.21225	
0.0511833	2.30621	0.19577	
0.0512	2.3056	0.189972	
0.0512167	2.3056	0.19455	
0.0512333	2.30621	0.201111	
0.05125	2.3056	0.211945	
0.0512667	2.29187	0.222473	
0.0512833	2.24182	0.231476	
0.0513	2.21313	0.251617	
0.0513167	2.18628	0.271301	
0.0513333	2.16156	0.279083	
0.05135	2.13715	0.288086	
0.0513667	2.11029	0.302124	
0.0513833	2.08588	0.319824	
0.0514	2.06116	0.343933	
0.0514167	2.03796	0.36911	
0.0514333	2.01416	0.392151	
0.05145	1.99005	0.414886	
0.0514667	1.96533	0.41626	
0.0514833	1.94092	0.403137	
0.0515	1.91895	0.418701	
0.0515167	1.89453	0.458832	
0.0515333	1.87042	0.487366	
0.05155	1.84662	0.505371	
0.0515667	1.82068	0.555267	
0.0515833	1.79688	0.55481	
0.0516	1.77246	0.495758	
0.0516167	1.74744	0.436554	
0.0516333	1.72058	0.404205	
0.05165	1.69586	0.40451	
0.0516667	1.66931	0.456848	
0.0516833	1.64215	0.565033	
0.0517	1.61499	0.655823	
0.0517167	1.5863	0.673065	
0.0517333	1.55914	0.614014	
0.05175	1.53015	0.51651	
0.0517667	1.50269	0.427399	
0.0517833	1.4743	0.357208	
0.0518	1.44531	0.294037	
0.0518167	1.41571	0.244904	
0.0518333	1.3858	0.195923	
0.05185	1.35773	0.133057	
0.0518667	1.32874	0.0886536	
0.0518833	1.30005	0.0505066	
0.0519	1.27136	0.000762939	
0.0519167	1.24329	-0.0657654	
0.0519333	1.21552	-0.124359	
0.05195	1.18774	-0.167542	
0.0519667	1.1615	-0.191803	
0.0519833	1.13586	-0.193787	
0.052	1.11084	-0.196686	
0.0520167	1.08612	-0.209198	
0.0520333	1.0614	-0.214233	
0.05205	1.03912	-0.210266	
0.0520667	1.01532	-0.191498	
0.0520833	0.993042	-0.174255	
0.0521	0.969849	-0.174408	
0.0521167	0.948792	-0.174713	
0.0521333	0.928955	-0.1651	
0.05215	0.908508	-0.16098	
0.0521667	0.889282	-0.158081	
0.0521833	0.871277	-0.14328	
0.0522	0.852051	-0.128479	
0.0522167	0.835571	-0.119324	
0.0522333	0.818481	-0.0746155	
0.05225	0.802307	-0.0213623	
0.0522667	0.787964	-0.037384	
0.0522833	0.7724	-0.0720215	
0.0523	0.758362	-0.0956726	
0.0523167	0.74585	-0.0901794	
0.0523333	0.732727	-0.0579834	
0.05235	0.72052	-0.0254822	
0.0523667	0.708618	-0.00152588	
0.0523833	0.698853	0.0195313	
0.0524	0.686646	0.0350952	
0.0524167	0.677185	0.0494385	
0.0524333	0.666504	0.0675964	
0.05245	0.657349	0.0880432	
0.0524667	0.647278	0.107269	
0.0524833	0.639343	0.129547	
0.0525	0.630493	0.144196	
0.0525167	0.622559	0.169678	
0.0525333	0.614014	0.211487	
0.05255	0.605774	0.218506	
0.0525667	0.598145	0.207672	
0.0525833	0.591125	0.202026	
0.0526	0.584106	0.207214	
0.0526167	0.577087	0.222931	
0.0526333	0.570374	0.240479	
0.05265	0.565186	0.256042	
0.0526667	0.558472	0.276184	
0.0526833	0.552673	0.322266	
0.0527	0.548096	0.359039	
0.0527167	0.543213	0.380249	
0.0527333	0.53772	0.391235	
0.05275	0.532532	0.341492	
0.0527667	0.528259	0.29953	
0.0527833	0.523987	0.296936	
0.0528	0.518799	0.320282	
0.0528167	0.513916	0.36438	
0.0528333	0.510254	0.509338	
0.05285	0.506592	0.746613	
0.0528667	0.502014	0.874481	
0.0528833	0.498352	0.835266	
0.0529	0.495911	0.739746	
0.0529167	0.491638	0.669708	
0.0529333	0.486755	0.655823	
0.05295	0.484314	0.690918	
0.0529667	0.481567	0.768738	
0.0529833	0.4776	0.841827	
0.053	0.474548	0.828857	
0.0530167	0.469971	0.699463	
0.0530333	0.466003	0.537109	
0.05305	0.459595	0.422974	
0.0530667	0.455322	0.355988	
0.0530833	0.449829	0.315704	
0.0531	0.443726	0.290375	
0.0531167	0.438232	0.278168	
0.0531333	0.432434	0.286407	
0.05315	0.42572	0.305176	
0.0531667	0.41748	0.30365	
0.0531833	0.411377	0.25528	
0.0532	0.401917	0.198364	
0.0532167	0.394287	0.162048	
0.0532333	0.385132	0.134125	
0.05325	0.375366	0.116119	
0.0532667	0.365295	0.111694	
0.0532833	0.35553	0.138092	
0.0533	0.344238	0.1474	
0.0533167	0.333252	0.174103	
0.0533333	0.321655	0.193939	
0.05335	0.310974	0.194092	
0.0533667	0.298462	0.20874	
0.0533833	0.287781	0.205994	
0.0534	0.274658	0.210419	
0.0534167	0.262146	0.210724	
0.0534333	0.248718	0.193939	
0.05345	0.23407	0.17807	
0.0534667	0.219727	0.156097	
0.0534833	0.204773	0.133667	
0.0535	0.190125	0.117798	
0.0535167	0.172729	0.110779	
0.0535333	0.155945	0.0990295	
0.05355	0.140381	0.0787354	
0.0535667	0.123901	0.0595093	
0.0535833	0.105286	0.058136	
0.0536	0.0872803	0.0712585	
0.0536167	0.0686646	0.0991821	
0.0536333	0.0488281	0.116425	
0.05365	0.0292969	0.128479	
0.0536667	0.00823975	0.145264	
0.0536833	-0.012207	0.159149	
0.0537	-0.032959	0.163727	
0.0537167	-0.0543213	0.163574	
0.0537333	-0.0756836	0.173492	
0.05375	-0.0967407	0.162811	
0.0537667	-0.119934	0.149841	
0.0537833	-0.141296	0.132599	
0.0538	-0.16449	0.125885	
0.0538167	-0.185852	0.111237	
0.0538333	-0.20813	0.0935364	
0.05385	-0.230103	0.0891113	
0.0538667	-0.253296	0.0808716	
0.0538833	-0.275574	0.0721741	
0.0539	-0.297546	0.0610352	
0.0539167	-0.318604	0.0544739	
0.0539333	-0.342102	0.0485229	
0.05395	-0.362854	0.0416565	
0.0539667	-0.384827	0.0747681	
0.0539833	-0.407104	0.130005	
0.054	-0.426636	0.101471	
0.0540167	-0.447693	0.0601196	
0.0540333	-0.46814	0.04776	
0.05405	-0.488281	0.0465393	
0.0540667	-0.509644	0.0773621	
0.0540833	-0.527344	0.0866699	
0.0541	-0.546265	0.0708008	
0.0541167	-0.565796	0.0479126	
0.0541333	-0.583191	0.0344849	
0.05415	-0.603333	0.0328064	
0.0541667	-0.618591	0.0531006	
0.0541833	-0.635071	0.0753784	
0.0542	-0.651855	0.062561	
0.0542167	-0.666809	0.0505066	
0.0542333	-0.682068	0.0747681	
0.05425	-0.697021	0.110016	
0.0542667	-0.71167	0.140228	
0.0542833	-0.725098	0.178223	
0.0543	-0.738525	0.210876	
0.0543167	-0.751953	0.188446	
0.0543333	-0.763855	0.152435	
0.05435	-0.776062	0.126038	
0.0543667	-0.788574	0.106812	
0.0543833	-0.800171	0.0967407	
0.0544	-0.810547	0.0840759	
0.0544167	-0.820313	0.0752258	
0.0544333	-0.830688	0.0656128	
0.05445	-0.84198	0.0556946	
0.0544667	-0.850525	0.0598145	
0.0544833	-0.859375	0.0614929	
0.0545	-0.869446	0.0575256	
0.0545167	-0.877686	0.0570679	
0.0545333	-0.887146	0.0614929	
0.05455	-0.89447	0.0706482	
0.0545667	-0.9021	0.0865173	
0.0545833	-0.909729	0.109406	
0.0546	-0.915527	0.115662	
0.0546167	-0.923767	0.118866	
0.0546333	-0.931396	0.12085	
0.05465	-0.937195	0.135956	
0.0546667	-0.942078	0.169067	
0.0546833	-0.948792	0.204773	
0.0547	-0.955505	0.236206	
0.0547167	-0.961609	0.252838	
0.0547333	-0.967407	0.259094	
0.05475	-0.973511	0.261688	
0.0547667	-0.979919	0.260162	
0.0547833	-0.985413	0.258026	
0.0548	-0.991516	0.261688	
0.0548167	-0.995789	0.264282	
0.0548333	-1.00006	0.27832	
0.05485	-1.00586	0.28717	
0.0548667	-1.00983	0.282288	
0.0548833	-1.01471	0.262451	
0.0549	-1.0199	0.253296	
0.0549167	-1.02509	0.258179	
0.0549333	-1.02722	0.246735	
0.05495	-1.03271	0.238953	
0.0549667	-1.03516	0.231323	
0.0549833	-1.03851	0.222626	
0.055	-1.04218	0.22049	
0.0550167	-1.04431	0.231018	
0.0550333	-1.04736	0.24765	
0.05505	-1.0495	0.262451	
0.0550667	-1.05286	0.26886	
0.0550833	-1.05438	0.273895	
0.0551	-1.05499	0.26001	
0.0551167	-1.05743	0.240936	
0.0551333	-1.06079	0.220947	
0.05515	-1.06232	0.214539	
0.0551667	-1.06171	0.227356	
0.0551833	-1.06384	0.22934	
0.0552	-1.06537	0.232391	
0.0552167	-1.06537	0.234833	
0.0552333	-1.06537	0.235748	
0.05525	-1.0675	0.248566	
0.0552667	-1.06781	0.252838	
0.0552833	-1.06964	0.251007	
0.0553	-1.0672	0.253296	
0.0553167	-1.0675	0.254059	
0.0553333	-1.06812	0.250092	
0.05535	-1.0672	0.256348	
0.0553667	-1.0675	0.267639	
0.0553833	-1.06842	0.245361	
0.0554	-1.0672	0.216064	
0.0554167	-1.06659	0.215759	
0.0554333	-1.06476	0.245209	
0.05545	-1.06506	0.262604	
0.0554667	-1.06293	0.27359	
0.0554833	-1.06201	0.301819	
0.0555	-1.06049	0.365295	
0.0555167	-1.05927	0.440826	
0.0555333	-1.05621	0.494843	
0.05555	-1.05377	0.490875	
0.0555667	-1.05225	0.387573	
0.0555833	-1.05042	0.279083	
0.0556	-1.04675	0.198364	
0.0556167	-1.0434	0.158081	
0.0556333	-1.04034	0.142212	
0.05565	-1.03638	0.149536	
0.0556667	-1.0318	0.157776	
0.0556833	-1.02661	0.168915	
0.0557	-1.02264	0.162048	
0.0557167	-1.01685	0.159302	
0.0557333	-1.01227	0.159149	
0.05575	-1.00769	0.164185	
0.0557667	-1.00159	0.168915	
0.0557833	-0.996094	0.167542	
0.0558	-0.990295	0.171356	
0.0558167	-0.983582	0.178528	
0.0558333	-0.977478	0.170135	
0.05585	-0.969238	0.16861	
0.0558667	-0.96344	0.173035	
0.0558833	-0.956726	0.173492	
0.0559	-0.949707	0.174713	
0.0559167	-0.941162	0.186157	
0.0559333	-0.934143	0.195007	
0.05595	-0.927734	0.194244	
0.0559667	-0.9198	0.198059	
0.0559833	-0.912781	0.213013	
0.056	-0.904846	0.225067	
0.0560167	-0.895081	0.228119	
0.0560333	-0.887146	0.257111	
0.05605	-0.878601	0.269775	
0.0560667	-0.870972	0.256348	
0.0560833	-0.861511	0.245514	
0.0561	-0.853271	0.237122	
0.0561167	-0.844421	0.23819	
0.0561333	-0.837097	0.240784	
0.05615	-0.827026	0.242157	
0.0561667	-0.819092	0.238037	
0.0561833	-0.809326	0.230255	
0.0562	-0.801697	0.232239	
0.0562167	-0.793152	0.238647	
0.0562333	-0.783386	0.244446	
0.05625	-0.775452	0.245209	
0.0562667	-0.765991	0.240631	
0.0562833	-0.75592	0.230255	
0.0563	-0.747681	0.223694	
0.0563167	-0.740051	0.228119	
0.0563333	-0.731812	0.210571	
0.05635	-0.721436	0.194092	
0.0563667	-0.714417	0.180206	
0.0563833	-0.706177	0.171509	
0.0564	-0.697632	0.158081	
0.0564167	-0.689087	0.144806	
0.0564333	-0.681458	0.133667	
0.05645	-0.674744	0.127869	
0.0564667	-0.667419	0.127258	
0.0564833	-0.660706	0.116577	
0.0565	-0.652466	0.100403	
0.0565167	-0.645447	0.0874329	
0.0565333	-0.639648	0.0813293	
0.05655	-0.635376	0.0759888	
0.0565667	-0.628662	0.0698853	
0.0565833	-0.622559	0.052948	
0.0566	-0.617981	0.0492859	
0.0566167	-0.612793	0.0505066	
0.0566333	-0.60791	0.0515747	
0.05665	-0.603333	0.0421143	
0.0566667	-0.600586	0.0402832	
0.0566833	-0.596008	0.050354	
0.0567	-0.592957	0.0585938	
0.0567167	-0.589905	0.0758362	
0.0567333	-0.587463	0.0801086	
0.05675	-0.583496	0.0830078	
0.0567667	-0.582275	0.0857544	
0.0567833	-0.58075	0.083313	
0.0568	-0.578613	0.0842285	
0.0568167	-0.577698	0.0788879	
0.0568333	-0.577698	0.0666809	
0.05685	-0.575867	0.0537109	
0.0568667	-0.575562	0.0456238	
0.0568833	-0.574951	0.0401306	
0.0569	-0.57312	0.0346375	
0.0569167	-0.57373	0.0350952	
0.0569333	-0.574646	0.03479	
0.05695	-0.575256	0.0288391	
0.0569667	-0.576172	0.0167847	
0.0569833	-0.578003	0.0062561	
0.057	-0.579224	-0.00762939	
0.0570167	-0.579529	-0.0152588	
0.0570333	-0.582581	-0.0169373	
0.05705	-0.584717	-0.0202942	
0.0570667	-0.589294	-0.0209045	
0.0570833	-0.591736	-0.0230408	
0.0571	-0.594788	-0.0299072	
0.0571167	-0.598755	-0.0430298	
0.0571333	-0.601501	-0.0544739	
0.05715	-0.606079	-0.0575256	
0.0571667	-0.610962	-0.045166	
0.0571833	-0.612793	-0.037384	
0.0572	-0.618286	-0.0482178	
0.0572167	-0.621338	-0.0648499	
0.0572333	-0.62561	-0.055542	
0.05725	-0.629883	-0.0444031	
0.0572667	-0.632935	-0.0413513	
0.0572833	-0.638123	-0.0460815	
0.0573	-0.64209	-0.0544739	
0.0573167	-0.647888	-0.0544739	
0.0573333	-0.652466	-0.0465393	
0.05735	-0.657654	-0.0627136	
0.0573667	-0.661316	-0.0834656	
0.0573833	-0.667114	-0.08255	
0.0574	-0.671387	-0.0933838	
0.0574167	-0.677185	-0.0872803	
0.0574333	-0.682068	-0.0743103	
0.05745	-0.686951	-0.06073	
0.0574667	-0.692139	-0.0608826	
0.0574833	-0.698547	-0.0634766	
0.0575	-0.704041	-0.0512695	
0.0575167	-0.708618	-0.0398254	
0.0575333	-0.715637	-0.03479	
0.05755	-0.720825	-0.0315857	
0.0575667	-0.72876	-0.0250244	
0.0575833	-0.733643	-0.0189209	
0.0576	-0.73822	-0.00915527	
0.0576167	-0.745239	0.00411987	
0.0576333	-0.750732	0.0178528	
0.05765	-0.758057	0.0175476	
0.0576667	-0.762939	0.00671387	
0.0576833	-0.769958	-0.00289917	
0.0577	-0.775146	0.00839233	
0.0577167	-0.782776	0.0186157	
0.0577333	-0.78949	0.0227356	
0.05775	-0.796204	0.0350952	
0.0577667	-0.802917	0.0309753	
0.0577833	-0.809326	0.0271606	
0.0578	-0.81543	0.0312805	
0.0578167	-0.821533	0.0267029	
0.0578333	-0.828247	0.0228882	
0.05785	-0.834045	0.0244141	
0.0578667	-0.840454	0.0247192	
0.0578833	-0.847778	0.0239563	
0.0579	-0.853271	0.0183105	
0.0579167	-0.858459	0.0137329	
0.0579333	-0.866089	0.0126648	
0.05795	-0.873108	0.0184631	
0.0579667	-0.878296	0.0219727	
0.0579833	-0.88501	0.019989	
0.058	-0.890503	0.0204468	
0.0580167	-0.897522	0.0202942	
0.0580333	-0.90271	0.017395	
0.05805	-0.909729	0.012207	
0.0580667	-0.915527	0.00640869	
0.0580833	-0.922241	0.00717163	
0.0581	-0.927124	0.00762939	
0.0581167	-0.934448	0.0062561	
0.0581333	-0.939331	0.0112915	
0.05815	-0.94635	0.00808716	
0.0581667	-0.952148	0.00320435	
0.0581833	-0.958252	0.00427246	
0.0582	-0.96344	-0.000915527	
0.0582167	-0.969543	-0.00411987	
0.0582333	-0.975342	0.00442505	
0.05825	-0.98114	0.0138855	
0.0582667	-0.987854	0.0154114	
0.0582833	-0.992432	0.00946045	
0.0583	-0.99823	0.00427246	
0.0583167	-1.00342	0.00991821	
0.0583333	-1.0083	0.0605774	
0.05835	-1.01257	0.0248718	
0.0583667	-1.01868	0.0088501	
0.0583833	-1.02356	-0.000610352	
0.0584	-1.02905	-0.0105286	
0.0584167	-1.03333	-0.0125122	
0.0584333	-1.03973	-0.0157166	
0.05845	-1.04401	-0.012207	
0.0584667	-1.0495	-0.0106812	
0.0584833	-1.05408	-0.00686646	
0.0585	-1.05896	0.00305176	
0.0585167	-1.06201	0.0241089	
0.0585333	-1.06903	0.0360107	
0.05855	-1.07391	0.037384	
0.0585667	-1.07849	0.0306702	
0.0585833	-1.08368	0.0262451	
0.0586	-1.08826	0.0585938	
0.0586167	-1.09467	0.115356	
0.0586333	-1.09863	0.114136	
0.05865	-1.10321	0.0837708	
0.0586667	-1.10901	0.071106	
0.0586833	-1.11176	0.065918	
0.0587	-1.11725	0.059967	
0.0587167	-1.12213	0.0602722	
0.0587333	-1.12671	0.0634766	
0.05875	-1.1319	0.0744629	
0.0587667	-1.13647	0.0816345	
0.0587833	-1.13983	0.112	
0.0588	-1.14471	0.163269	
0.0588167	-1.14807	0.166473	
0.0588333	-1.15265	0.166473	
0.05885	-1.1554	0.17868	
0.0588667	-1.16028	0.218964	
0.0588833	-1.16394	0.241089	
0.0589	-1.17004	0.251465	
0.0589167	-1.17371	0.280609	
0.0589333	-1.1792	0.3125	
0.05895	-1.18164	0.346222	
0.0589667	-1.18683	0.391998	
0.0589833	-1.19049	0.449982	
0.059	-1.19507	0.508575	
0.0590167	-1.19904	0.580597	
0.0590333	-1.2027	0.607452	
0.05905	-1.20636	0.628357	
0.0590667	-1.21124	0.668182	
0.0590833	-1.2149	0.714264	
0.0591	-1.21857	0.775146	
0.0591167	-1.22345	0.84671	
0.0591333	-1.22559	0.892944	
0.05915	-1.22894	0.957489	
0.0591667	-1.23322	0.980835	
0.0591833	-1.2381	0.965118	
0.0592	-1.24268	0.990906	
0.0592167	-1.24542	1.01837	
0.0592333	-1.24847	1.04095	
0.05925	-1.25275	1.06415	
0.0592667	-1.25793	1.03394	
0.0592833	-1.26038	0.993347	
0.0593	-1.26312	0.977936	
0.0593167	-1.2674	0.962982	
0.0593333	-1.27197	0.93277	
0.05935	-1.27441	0.880585	
0.0593667	-1.27747	0.808868	
0.0593833	-1.28021	0.753937	
0.0594	-1.28235	0.713196	
0.0594167	-1.28754	0.667572	
0.0594333	-1.28784	0.601959	
0.05945	-1.2915	0.531616	
0.0594667	-1.29395	0.483093	
0.0594833	-1.29547	0.451965	
0.0595	-1.29944	0.418549	
0.0595167	-1.30219	0.380402	
0.0595333	-1.30432	0.352631	
0.05955	-1.30737	0.341949	
0.0595667	-1.31012	0.328064	
0.0595833	-1.31256	0.300446	
0.0596	-1.3147	0.26062	
0.0596167	-1.31744	0.223694	
0.0596333	-1.32019	0.198975	
0.05965	-1.32294	0.181122	
0.0596667	-1.32568	0.166473	
0.0596833	-1.32904	0.149536	
0.0597	-1.33118	0.128021	
0.0597167	-1.33331	0.110474	
0.0597333	-1.33636	0.0950623	
0.05975	-1.33942	0.0787354	
0.0597667	-1.34125	0.0639343	
0.0597833	-1.34338	0.0572205	
0.0598	-1.34613	0.0585938	
0.0598167	-1.34827	0.062561	
0.0598333	-1.34979	0.0602722	
0.05985	-1.35101	0.0543213	
0.0598667	-1.35254	0.0413513	
0.0598833	-1.35468	0.0366211	
0.0599	-1.35651	0.0282288	
0.0599167	-1.35895	0.0215149	
0.0599333	-1.36078	0.00915527	
0.05995	-1.36292	0.00137329	
0.0599667	-1.36414	-0.00366211	
0.0599833	-1.36627	-0.00869751	
0.06	-1.36841	-0.0149536	
0.0600167	-1.36871	-0.0146484	
0.0600333	-1.37146	-0.0180054	
0.06005	-1.3736	-0.0209045	
0.0600667	-1.37573	-0.0271606	
0.0600833	-1.37573	-0.0326538	
0.0601	-1.37878	-0.0320435	
0.0601167	-1.38092	-0.0398254	
0.0601333	-1.38245	-0.0473022	
0.06015	-1.38458	-0.0488281	
0.0601667	-1.38794	-0.0526428	
0.0601833	-1.38977	-0.0520325	
0.0602	-1.39252	-0.052948	
0.0602167	-1.39435	-0.0576782	
0.0602333	-1.39771	-0.0559998	
0.06025	-1.40015	-0.0515747	
0.0602667	-1.40228	-0.0465393	
0.0602833	-1.40564	-0.039978	
0.0603	-1.40778	-0.0360107	
0.0603167	-1.40961	-0.0340271	
0.0603333	-1.41205	-0.0334167	
0.06035	-1.41296	-0.0299072	
0.0603667	-1.41754	-0.0350952	
0.0603833	-1.41968	-0.0379944	
0.0604	-1.42059	-0.0192261	
0.0604167	-1.42212	0.00823975	
0.0604333	-1.42517	0.0198364	
0.06045	-1.42731	0.0238037	
0.0604667	-1.42944	0.0209045	
0.0604833	-1.43219	0.0201416	
0.0605	-1.43402	0.0279236	
0.0605167	-1.43677	0.030365	
0.0605333	-1.43921	0.0323486	
0.06055	-1.44043	0.0328064	
0.0605667	-1.44226	0.0282288	
0.0605833	-1.44226	0.0186157	
0.0606	-1.4447	0.018158	
0.0606167	-1.44531	0.0215149	
0.0606333	-1.44714	0.0244141	
0.06065	-1.44806	0.0273132	
0.0606667	-1.44958	0.0231934	
0.0606833	-1.4502	0.0149536	
0.0607	-1.45172	0.0128174	
0.0607167	-1.45233	0.0169373	
0.0607333	-1.45264	0.0190735	
0.06075	-1.45325	0.0267029	
0.0607667	-1.45294	0.0276184	
0.0607833	-1.45416	0.0172424	
0.0608	-1.45477	0.00579834	
0.0608167	-1.45447	-0.00305176	
0.0608333	-1.45477	-0.00610352	
0.06085	-1.45447	-0.00259399	
0.0608667	-1.45477	-0.00335693	
0.0608833	-1.45416	-0.000305176	
0.0609	-1.45447	0.000915527	
0.0609167	-1.45447	-0.00366211	
0.0609333	-1.45477	-0.00701904	
0.06095	-1.45477	-0.0108337	
0.0609667	-1.45477	-0.0135803	
0.0609833	-1.45294	-0.0236511	
0.061	-1.45264	-0.0460815	
0.0610167	-1.45203	-0.0418091	
0.0610333	-1.4502	-0.0346375	
0.06105	-1.44928	-0.0276184	
0.0610667	-1.44928	-0.0265503	
0.0610833	-1.44958	-0.027771	
0.0611	-1.44745	-0.0291443	
0.0611167	-1.44714	-0.030365	
0.0611333	-1.44775	-0.0308228	
0.06115	-1.44501	-0.0268555	
0.0611667	-1.44531	-0.0221252	
0.0611833	-1.44501	-0.0216675	
0.0612	-1.4444	-0.0308228	
0.0612167	-1.44257	-0.0289917	
0.0612333	-1.44257	-0.0242615	
0.06125	-1.44226	-0.0273132	
0.0612667	-1.43951	-0.0205994	
0.0612833	-1.44012	-0.0151062	
0.0613	-1.4386	-0.0120544	
0.0613167	-1.44012	-0.00701904	
0.0613333	-1.43768	-0.00488281	
0.06135	-1.43738	-0.00228882	
0.0613667	-1.43738	-0.0038147	
0.0613833	-1.43768	-0.00869751	
0.0614	-1.43707	-0.0134277	
0.0614167	-1.43768	-0.0135803	
0.0614333	-1.43768	-0.0114441	
0.06145	-1.43768	-0.00976563	
0.0614667	-1.43738	-0.0135803	
0.0614833	-1.43585	-0.0137329	
0.0615	-1.43524	-0.012207	
0.0615167	-1.43707	-0.0117493	
0.0615333	-1.43524	-0.00946045	
0.06155	-1.43463	-0.00869751	
0.0615667	-1.43494	-0.0109863	
0.0615833	-1.43494	-0.0160217	
0.0616	-1.43494	-0.0187683	
0.0616167	-1.43494	-0.0170898	
0.0616333	-1.43463	-0.0141907	
0.06165	-1.43494	-0.0177002	
0.0616667	-1.43463	-0.0367737	
0.0616833	-1.43463	-0.0450134	
0.0617	-1.43524	-0.0396729	
0.0617167	-1.43494	-0.0285339	
0.0617333	-1.43646	-0.0244141	
0.06175	-1.43707	-0.0276184	
0.0617667	-1.43707	-0.0282288	
0.0617833	-1.43738	-0.0267029	
0.0618	-1.43951	-0.0204468	
0.0618167	-1.44012	-0.0187683	
0.0618333	-1.44012	-0.0253296	
0.06185	-1.44073	-0.0306702	
0.0618667	-1.44135	-0.0268555	
0.0618833	-1.44196	-0.0228882	
0.0619	-1.44196	-0.0239563	
0.0619167	-1.44226	-0.0213623	
0.0619333	-1.44409	-0.0106812	
0.06195	-1.44287	-0.00732422	
0.0619667	-1.4444	-0.00854492	
0.0619833	-1.44501	-0.00488281	
0.062	-1.4444	-0.00244141	
0.0620167	-1.44501	-0.00396729	
0.0620333	-1.44379	-0.00213623	
0.06205	-1.4447	0.000762939	
0.0620667	-1.44379	0.000457764	
0.0620833	-1.44379	0.00732422	
0.0621	-1.44379	0.00976563	
0.0621167	-1.44257	0.00274658	
0.0621333	-1.44226	-0.00183105	
0.06215	-1.44257	0	
0.0621667	-1.44073	0.00640869	
0.0621833	-1.44165	0.0119019	
0.0622	-1.44196	0.017395	
0.0622167	-1.44196	0.0236511	
0.0622333	-1.44196	0.0265503	
0.06225	-1.44043	0.0274658	
0.0622667	-1.44012	0.0274658	
0.0622833	-1.44257	0.0292969	
0.0623	-1.44257	0.0280762	
0.0623167	-1.44226	0.0274658	
0.0623333	-1.44318	0.0233459	
0.06235	-1.44501	0.0205994	
0.0623667	-1.4447	0.0247192	
0.0623833	-1.44623	0.0318909	
0.0624	-1.44745	0.0392151	
0.0624167	-1.44745	0.0416565	
0.0624333	-1.44867	0.0401306	
0.06245	-1.44928	0.0367737	
0.0624667	-1.44989	0.0326538	
0.0624833	-1.45111	0.0305176	
0.0625	-1.45264	0.030365	
0.0625167	-1.45264	0.0360107	
0.0625333	-1.45416	0.0395203	
0.06255	-1.45447	0.0398254	
0.0625667	-1.45416	0.0395203	
0.0625833	-1.45447	0.0375366	
0.0626	-1.4566	0.0378418	
0.0626167	-1.45721	0.032959	
0.0626333	-1.45691	0.0299072	
0.06265	-1.45691	0.0273132	
0.0626667	-1.45721	0.0254822	
0.0626833	-1.45782	0.0267029	
0.0627	-1.45691	0.0315857	
0.0627167	-1.45691	0.0398254	
0.0627333	-1.45874	0.0424194	
0.06275	-1.45874	0.0465393	
0.0627667	-1.45966	0.052948	
0.0627833	-1.45905	0.0540161	
0.0628	-1.46057	0.04776	
0.0628167	-1.45966	0.0413513	
0.0628333	-1.46057	0.0482178	
0.06285	-1.46271	0.0549316	
0.0628667	-1.46149	0.0521851	
0.0628833	-1.46301	0.0497437	
0.0629	-1.46393	0.0491333	
0.0629167	-1.46423	0.0476074	
0.0629333	-1.46667	0.0552368	
0.06295	-1.46698	0.0613403	
0.0629667	-1.46881	0.0608826	
0.0629833	-1.46973	0.0613403	
0.063	-1.47156	0.0619507	
0.0630167	-1.47186	0.0616455	
0.0630333	-1.47339	0.0642395	
0.06305	-1.474	0.0675964	
0.0630667	-1.474	0.0663757	
0.0630833	-1.47522	0.0639343	
0.0631	-1.47705	0.0640869	
0.0631167	-1.47461	0.0617981	
0.0631333	-1.47705	0.057373	
0.06315	-1.47522	0.0604248	
0.0631667	-1.47461	0.058136	
0.0631833	-1.47675	0.0569153	
0.0632	-1.47522	0.0587463	
0.0632167	-1.47552	0.0590515	
0.0632333	-1.47491	0.0593567	
0.06325	-1.47278	0.0608826	
0.0632667	-1.47156	0.0650024	
0.0632833	-1.46942	0.0704956	
0.0633	-1.4679	0.0715637	
0.0633167	-1.46729	0.0714111	
0.0633333	-1.46484	0.0697327	
0.06335	-1.46179	0.0672913	
0.0633667	-1.46057	0.0648499	
0.0633833	-1.4563	0.0683594	
0.0634	-1.45294	0.0709534	
0.0634167	-1.44836	0.0726318	
0.0634333	-1.4447	0.0732422	
0.06345	-1.44012	0.0671387	
0.0634667	-1.43402	0.065918	
0.0634833	-1.42853	0.0689697	
0.0635	-1.42212	0.0656128	
0.0635167	-1.41388	0.0624084	
0.0635333	-1.40747	0.0613403	
0.06355	-1.39801	0.059967	
0.0635667	-1.39191	0.0588989	
0.0635833	-1.38092	0.0590515	
0.0636	-1.37115	0.0575256	
0.0636167	-1.36047	0.0550842	
0.0636333	-1.34918	0.0521851	
0.06365	-1.33728	0.0457764	
0.0636667	-1.32477	0.0428772	
0.0636833	-1.31012	0.0476074	
0.0637	-1.29578	0.0518799	
0.0637167	-1.28113	0.0535583	
0.0637333	-1.26556	0.0563049	
0.06375	-1.24817	0.0572205	
0.0637667	-1.23047	0.0622559	
0.0637833	-1.21094	0.0604248	
0.0638	-1.1911	0.0514221	
0.0638167	-1.17004	0.0427246	
0.0638333	-1.14777	0.0382996	
0.06385	-1.12427	0.0354004	
0.0638667	-1.10138	0.0370789	
0.0638833	-1.07788	0.0393677	
0.0639	-1.05103	0.0408936	
0.0639167	-1.02417	0.0404358	
0.0639333	-0.995178	0.043335	
0.06395	-0.967712	0.0419617	
0.0639667	-0.93811	0.0378418	
0.0639833	-0.906677	0.0337219	
0.064	-0.874329	0.0364685	
0.0640167	-0.842896	0.0393677	
0.0640333	-0.809326	0.0418091	
0.06405	-0.772705	0.0398254	
0.0640667	-0.73761	0.035553	
0.0640833	-0.701904	0.0288391	
0.0641	-0.664063	0.0311279	
0.0641167	-0.626221	0.0344849	
0.0641333	-0.587463	0.0305176	
0.06415	-0.547485	0.0270081	
0.0641667	-0.509033	0.0210571	
0.0641833	-0.466003	0.0212097	
0.0642	-0.425415	0.0265503	
0.0642167	-0.383606	0.0296021	
0.0642333	-0.340576	0.0274658	
0.06425	-0.298462	0.020752	
0.0642667	-0.253906	0.0149536	
0.0642833	-0.210876	0.01297	
0.0643	-0.164795	0.0134277	
0.0643167	-0.120239	0.0128174	
0.0643333	-0.0759888	0.0137329	
0.06435	-0.0289917	0.0227356	
0.0643667	0.0164795	0.025177	
0.0643833	0.0637817	0.0231934	
0.0644	0.108948	0.0247192	
0.0644167	0.15625	0.0256348	
0.0644333	0.204468	0.0318909	
0.06445	0.250549	0.0349426	
0.0644667	0.297852	0.03479	
0.0644833	0.345154	0.0349426	
0.0645	0.390015	0.0335693	
0.0645167	0.437927	0.0350952	
0.0645333	0.483093	0.0390625	
0.06455	0.528259	0.0418091	
0.0645667	0.573425	0.0421143	
0.0645833	0.617676	0.0404358	
0.0646	0.661926	0.039978	
0.0646167	0.706177	0.0421143	
0.0646333	0.748291	0.0428772	
0.06465	0.791931	0.0404358	
0.0646667	0.832214	0.0404358	
0.0646833	0.873108	0.0439453	
0.0647	0.912781	0.0439453	
0.0647167	0.952759	0.0360107	
0.0647333	0.991516	0.0262451	
0.06475	1.02875	0.0189209	
0.0647667	1.06628	0.0198364	
0.0647833	1.10229	0.0149536	
0.0648	1.13678	0.0112915	
0.0648167	1.17157	0.010376	
0.0648333	1.203	0.0109863	
0.06485	1.23627	0.0172424	
0.0648667	1.2674	0.0219727	
0.0648833	1.29669	0.0204468	
0.0649	1.32751	0.0177002	
0.0649167	1.35498	0.0192261	
0.0649333	1.38245	0.019989	
0.06495	1.40778	0.0221252	
0.0649667	1.4325	0.0250244	
0.0649833	1.4563	0.0236511	
0.065	1.47827	0.022583	
0.0650167	1.49902	0.020752	
0.0650333	1.521	0.0198364	
0.06505	1.54053	0.0244141	
0.0650667	1.55884	0.0289917	
0.0650833	1.57593	0.0238037	
0.0651	1.59363	0.0175476	
0.0651167	1.60797	0.0149536	
0.0651333	1.62476	0.0111389	
0.06515	1.63788	0.0128174	
0.0651667	1.65039	0.0172424	
0.0651833	1.66199	0.0215149	
0.0652	1.67389	0.0244141	
0.0652167	1.68304	0.0247192	
0.0652333	1.69006	0.020752	
0.06525	1.69922	0.0178528	
0.0652667	1.70685	0.0193787	
0.0652833	1.71234	0.0222778	
0.0653	1.71753	0.0248718	
0.0653167	1.72241	0.0248718	
0.0653333	1.72577	0.0254822	
0.06535	1.7276	0.0254822	
0.0653667	1.72943	0.0213623	
0.0653833	1.73096	0.0178528	
0.0654	1.73004	0.0117493	
0.0654167	1.72852	0.012207	
0.0654333	1.72638	0.0172424	
0.06545	1.72394	0.0218201	
0.0654667	1.71967	0.0209045	
0.0654833	1.716	0.0216675	
0.0655	1.71143	0.0228882	
0.0655167	1.70654	0.0238037	
0.0655333	1.69922	0.0231934	
0.06555	1.6922	0.0244141	
0.0655667	1.68457	0.0209045	
0.0655833	1.67664	0.0166321	
0.0656	1.6687	0.019989	
0.0656167	1.65863	0.022583	
0.0656333	1.64856	0.0241089	
0.06565	1.6391	0.0250244	
0.0656667	1.62811	0.0253296	
0.0656833	1.6153	0.0271606	
0.0657	1.60522	0.0300598	
0.0657167	1.59302	0.0344849	
0.0657333	1.57898	0.040741	
0.06575	1.56616	0.042572	
0.0657667	1.55334	0.0402832	
0.0657833	1.53961	0.038147	
0.0658	1.5271	0.0350952	
0.0658167	1.51215	0.0320435	
0.0658333	1.49719	0.0299072	
0.06585	1.48315	0.0282288	
0.0658667	1.46851	0.0262451	
0.0658833	1.45386	0.0265503	
0.0659	1.43921	0.0279236	
0.0659167	1.42181	0.0318909	
0.0659333	1.40778	0.0344849	
0.06595	1.39221	0.03479	
0.0659667	1.37573	0.0312805	
0.0659833	1.36047	0.027771	
0.066	1.3443	0.0260925	
0.0660167	1.32935	0.0332642	
0.0660333	1.31348	0.0392151	
0.06605	1.29669	0.0422668	
0.0660667	1.28052	0.0465393	
0.0660833	1.26526	0.0531006	
0.0661	1.24878	0.0575256	
0.0661167	1.23352	0.0552368	
0.0661333	1.21674	0.0505066	
0.06615	1.20148	0.0466919	
0.0661667	1.18561	0.0463867	
0.0661833	1.16974	0.0405884	
0.0662	1.15326	0.043335	
0.0662167	1.13831	0.0465393	
0.0662333	1.12366	0.0471497	
0.06625	1.10718	0.0494385	
0.0662667	1.09131	0.0515747	
0.0662833	1.07483	0.0544739	
0.0663	1.05957	0.0544739	
0.0663167	1.04492	0.04776	
0.0663333	1.02783	0.0398254	
0.06635	1.01318	0.0370789	
0.0663667	0.996399	0.040741	
0.0663833	0.980835	0.0416565	
0.0664	0.965881	0.0382996	
0.0664167	0.950012	0.0375366	
0.0664333	0.934448	0.0408936	
0.06645	0.9198	0.0418091	
0.0664667	0.904846	0.0421143	
0.0664833	0.890503	0.0421143	
0.0665	0.87616	0.0447083	
0.0665167	0.859985	0.0469971	
0.0665333	0.845032	0.0508118	
0.06655	0.829468	0.0517273	
0.0665667	0.81543	0.0502014	
0.0665833	0.799255	0.0474548	
0.0666	0.782776	0.0482178	
0.0666167	0.767822	0.0495911	
0.0666333	0.751343	0.0498962	
0.06665	0.735779	0.0488281	
0.0666667	0.72113	0.0415039	
0.0666833	0.706482	0.0398254	
0.0667	0.690613	0.0376892	
0.0667167	0.674744	0.0349426	
0.0667333	0.65918	0.0366211	
0.06675	0.643005	0.0413513	
0.0667667	0.628662	0.0500488	
0.0667833	0.613098	0.058136	
0.0668	0.599365	0.0549316	
0.0668167	0.583191	0.0535583	
0.0668333	0.569153	0.0479126	
0.06685	0.554199	0.0469971	
0.0668667	0.540161	0.0476074	
0.0668833	0.525818	0.0489807	
0.0669	0.510559	0.0534058	
0.0669167	0.495605	0.0558472	
0.0669333	0.480957	0.0509644	
0.06695	0.468445	0.0517273	
0.0669667	0.453796	0.0537109	
0.0669833	0.439453	0.0521851	
0.067	0.4245	0.0544739	
0.0670167	0.410461	0.059967	
0.0670333	0.397949	0.0650024	
0.06705	0.383606	0.065918	
0.0670667	0.368958	0.0627136	
0.0670833	0.354004	0.0657654	
0.0671	0.33905	0.0688171	
0.0671167	0.326538	0.0689697	
0.0671333	0.3125	0.0631714	
0.06715	0.300293	0.055542	
0.0671667	0.285339	0.0479126	
0.0671833	0.271606	0.0486755	
0.0672	0.258179	0.0532532	
0.0672167	0.244751	0.0543213	
0.0672333	0.232239	0.0564575	
0.06725	0.219421	0.0567627	
0.0672667	0.204468	0.0566101	
0.0672833	0.190735	0.0546265	
0.0673	0.177307	0.0544739	
0.0673167	0.164795	0.0544739	
0.0673333	0.150757	0.0546265	
0.06735	0.138245	0.0521851	
0.0673667	0.124817	0.0523376	
0.0673833	0.111389	0.0553894	
0.0674	0.098877	0.0540161	
0.0674167	0.0863647	0.0468445	
0.0674333	0.0747681	0.0419617	
0.06745	0.0622559	0.0384521	
0.0674667	0.0497437	0.0384521	
0.0674833	0.0396729	0.0410461	
0.0675	0.0256348	0.040741	
0.0675167	0.0131226	0.043335	
0.0675333	0.00305176	0.0460815	
0.06755	-0.00976563	0.0469971	
0.0675667	-0.0216675	0.0469971	
0.0675833	-0.0332642	0.0445557	
0.0676	-0.045166	0.0448608	
0.0676167	-0.0564575	0.0492859	
0.0676333	-0.0683594	0.0486755	
0.06765	-0.0793457	0.0424194	
0.0676667	-0.0906372	0.0367737	
0.0676833	-0.101318	0.0393677	
0.0677	-0.11322	0.039978	
0.0677167	-0.12207	0.0382996	
0.0677333	-0.134583	0.0349426	
0.06775	-0.144043	0.030365	
0.0677667	-0.153809	0.0299072	
0.0677833	-0.163574	0.0314331	
0.0678	-0.17334	0.0306702	
0.0678167	-0.183411	0.0323486	
0.0678333	-0.193176	0.0346375	
0.06785	-0.203247	0.0332642	
0.0678667	-0.213013	0.032196	
0.0678833	-0.222168	0.0267029	
0.0679	-0.231018	0.0253296	
0.0679167	-0.239258	0.0259399	
0.0679333	-0.248718	0.0291443	
0.06795	-0.256958	0.0292969	
0.0679667	-0.265808	0.0254822	
0.0679833	-0.274353	0.0234985	
0.068	-0.281677	0.0236511	
0.0680167	-0.289917	0.0265503	
0.0680333	-0.296631	0.0296021	
0.06805	-0.30426	0.0312805	
0.0680667	-0.311584	0.0318909	
0.0680833	-0.317993	0.0262451	
0.0681	-0.325012	0.0231934	
0.0681167	-0.331726	0.0285339	
0.0681333	-0.33844	0.0341797	
0.06815	-0.345154	0.0309753	
0.0681667	-0.350952	0.0318909	
0.0681833	-0.355835	0.0341797	
0.0682	-0.363464	0.0320435	
0.0682167	-0.368042	0.0296021	
0.0682333	-0.37262	0.0276184	
0.06825	-0.377808	0.0257874	
0.0682667	-0.382996	0.0273132	
0.0682833	-0.386353	0.0312805	
0.0683	-0.389404	0.0343323	
0.0683167	-0.394897	0.03479	
0.0683333	-0.397339	0.0354004	
0.06835	-0.401917	0.0427246	
0.0683667	-0.405273	0.0465393	
0.0683833	-0.40802	0.0465393	
0.0684	-0.411682	0.0456238	
0.0684167	-0.415039	0.0480652	
0.0684333	-0.41748	0.0474548	
0.06845	-0.419617	0.0428772	
0.0684667	-0.421448	0.038147	
0.0684833	-0.423889	0.0357056	
0.0685	-0.425415	0.0344849	
0.0685167	-0.4245	0.0299072	
0.0685333	-0.424805	0.0231934	
0.06855	-0.426636	0.0270081	
0.0685667	-0.426025	0.0312805	
0.0685833	-0.427856	0.0299072	
