Local: ,2025-06-12 00:00:00+02:00,tz_sec ,7200
Linux Epoch (ms):,1749679200000.0
Timestamp,Seq No.,ECG data
1749724949341.531,0,12356
1749724949342.531,0,12354
1749724949343.531,0,12356
1749724949344.531,0,12356
1749724949345.531,0,12356
1749724949346.406,0,12354
1749724949347.406,0,12354
1749724949348.406,0,12355
1749724949349.406,0,12353
1749724949350.406,0,12355
1749724949351.406,0,12356
1749724949352.406,1,12351
1749724949353.406,1,12355
1749724949354.406,1,12354
1749724949355.406,1,12354
1749724949356.406,1,12355
1749724949357.406,1,12356
1749724949358.406,1,12354
1749724949359.406,1,12354
1749724949360.406,1,12354
1749724949361.406,1,12354
1749724949362.313,1,12357
1749724949363.312,2,12354
1749724949364.313,2,12355
1749724949365.312,2,12356
1749724949366.313,2,12354
1749724949367.312,2,12354
1749724949368.313,2,12355
1749724949369.312,2,12356
1749724949370.313,2,18263
1749724949371.312,2,25995
1749724949372.313,2,34493
1749724949373.312,2,42949
1749724949374.312,3,50785
1749724949375.313,3,57730
1749724949376.312,3,59984
1749724949377.313,3,59987
1749724949378.219,3,59993
1749724949379.219,3,59983
1749724949380.219,3,59983
1749724949381.219,3,59978
1749724949382.219,3,59994
1749724949383.219,3,59986
1749724949384.219,3,59970
1749724949385.219,4,59990
1749724949386.219,4,59983
1749724949387.219,4,59970
1749724949388.2192,4,59986
1749724949389.219,4,59985
1749724949390.219,4,59992
1749724949391.219,4,59998
1749724949392.219,4,59981
1749724949393.219,4,59986
1749724949394.063,4,59967
1749724949395.062,4,59982
1749724949396.063,5,59980
1749724949397.063,5,59979
1749724949398.062,5,59984
1749724949399.063,5,59983
1749724949400.062,5,59985
1749724949401.063,5,59981
1749724949402.062,5,59990
1749724949403.063,5,59981
1749724949404.062,5,59972
1749724949405.063,5,59986
1749724949406.0618,5,59989
1749724949407.063,6,59984
1749724949408.062,6,59976
1749724949409.063,6,59975
1749724949409.969,6,59976
1749724949410.969,6,59986
1749724949411.969,6,59975
1749724949412.969,6,59987
1749724949413.969,6,59984
1749724949414.969,6,59984
1749724949415.969,6,59993
1749724949416.969,6,59968
1749724949417.969,7,59975
1749724949418.969,7,59977
1749724949419.969,7,59981
1749724949420.969,7,59974
1749724949421.969,7,59978
1749724949422.969,7,59980
1749724949423.969,7,59975
1749724949424.969,7,59983
1749724949425.875,7,59976
1749724949426.875,7,59980
1749724949427.875,7,59980
1749724949428.875,8,59974
1749724949429.875,8,59985
1749724949430.875,8,59984
1749724949431.875,8,59970
1749724949432.875,8,59978
1749724949433.875,8,59985
1749724949434.875,8,59965
1749724949435.875,8,59972
1749724949436.875,8,59976
1749724949437.875,8,59977
1749724949438.875,8,59976
1749724949439.875,9,59988
1749724949440.875,9,59982
1749724949441.75,9,59974
1749724949442.75,9,59982
1749724949443.75,9,59983
1749724949444.75,9,59979
1749724949445.75,9,59988
1749724949446.75,9,59985
1749724949447.75,9,59977
1749724949448.75,9,59980
1749724949449.75,9,59977
1749724949450.75,10,59975
1749724949451.75,10,59966
1749724949452.75,10,59978
1749724949453.75,10,59975
1749724949454.75,10,59964
1749724949455.75,10,59984
1749724949456.75,10,59984
1749724949457.656,10,59977
1749724949458.656,10,59975
1749724949459.656,10,59975
1749724949460.656,10,59971
1749724949461.656,11,59969
1749724949462.656,11,59985
1749724949463.656,11,59977
1749724949464.656,11,59970
1749724949465.656,11,59987
1749724949466.656,11,59971
1749724949467.656,11,59983
1749724949468.656,11,59984
1749724949469.656,11,59976
1749724949470.656,11,59982
1749724949471.656,11,59973
1749724949472.656,12,59982
1749724949473.531,12,59969
1749724949474.531,12,59967
1749724949475.531,12,59974
1749724949476.531,12,59969
1749724949477.531,12,59980
1749724949478.5308,12,59982
1749724949479.531,12,59979
1749724949480.531,12,59970
1749724949481.531,12,59971
1749724949482.531,12,59972
1749724949483.531,13,59977
1749724949484.531,13,59968
1749724949485.531,13,59976
1749724949486.531,13,59974
1749724949487.531,13,59967
1749724949488.531,13,59967
1749724949489.438,13,59979
1749724949490.437,13,59977
1749724949491.438,13,59977
1749724949492.4368,13,59956
1749724949493.438,13,59970
1749724949494.437,14,59968
1749724949495.438,14,59966
1749724949496.437,14,59978
1749724949497.438,14,59971
1749724949498.437,14,59966
1749724949499.438,14,59980
1749724949500.437,14,59980
1749724949501.438,14,59976
1749724949502.437,14,59973
1749724949503.438,14,59980
1749724949504.437,14,59974
1749724949505.312,15,59975
1749724949506.313,15,59976
1749724949507.312,15,59973
1749724949508.313,15,59976
1749724949509.312,15,59980
1749724949510.313,15,59980
1749724949511.312,15,59969
1749724949512.313,15,59976
1749724949513.312,15,59967
1749724949514.313,15,59984
1749724949515.312,15,59977
1749724949516.313,16,59972
1749724949517.313,16,59971
1749724949518.312,16,59963
1749724949519.313,16,59974
1749724949520.312,16,59968
1749724949521.25,16,59968
1749724949522.25,16,59967
1749724949523.25,16,59974
1749724949524.25,16,59985
1749724949525.25,16,59963
1749724949526.25,16,59982
1749724949527.25,17,59965
1749724949528.25,17,59961
1749724949529.25,17,59982
1749724949530.25,17,59982
1749724949531.25,17,59975
1749724949532.25,17,59986
1749724949533.25,17,59979
1749724949534.25,17,59979
1749724949535.25,17,59971
1749724949536.25,17,59963
1749724949537.0942,17,59980
1749724949538.094,18,59977
1749724949539.094,18,59980
1749724949540.094,18,59961
1749724949541.094,18,59984
1749724949542.094,18,59986
1749724949543.094,18,59974
1749724949544.094,18,59968
1749724949545.094,18,59974
1749724949546.094,18,59977
1749724949547.094,18,59978
1749724949548.094,18,59964
1749724949549.094,19,59967
1749724949550.094,19,59975
1749724949551.094,19,59967
1749724949552.094,19,59986
1749724949553.0,19,59975
1749724949554.0,19,59990
1749724949555.0,19,59972
1749724949556.0,19,59975
1749724949557.0,19,59974
1749724949558.0,19,59976
1749724949559.0,19,59978
1749724949560.0,20,59982
1749724949561.0,20,59977
1749724949562.0,20,59962
1749724949563.0,20,59972
1749724949564.0,20,59963
1749724949565.0,20,59963
1749724949566.0,20,59973
1749724949567.0,20,59977
1749724949568.0,20,59969
1749724949568.875,20,59973
1749724949569.875,20,59969
1749724949570.875,21,59977
1749724949571.875,21,59964
1749724949572.875,21,59967
1749724949573.875,21,59972
1749724949574.875,21,59973
1749724949575.875,21,59974
1749724949576.875,21,59977
1749724949577.875,21,59983
1749724949578.875,21,59969
1749724949579.875,21,59974
1749724949580.875,21,59977
1749724949581.875,22,59974
1749724949582.875,22,59974
1749724949583.875,22,59975
1749724949584.781,22,59966
1749724949585.781,22,59960
1749724949586.781,22,59962
1749724949587.781,22,59966
1749724949588.781,22,59980
1749724949589.781,22,59958
1749724949590.781,22,59975
1749724949591.781,22,59966
1749724949592.781,23,59976
1749724949593.781,23,59966
1749724949594.781,23,59966
1749724949595.781,23,59981
1749724949596.781,23,59969
1749724949597.781,23,59971
1749724949598.781,23,59975
1749724949599.781,23,59977
1749724949600.688,23,59975
1749724949601.687,23,59971
1749724949602.688,23,59973
1749724949603.687,24,59975
1749724949604.688,24,59974
1749724949605.687,24,59970
1749724949606.688,24,59982
1749724949607.687,24,59970
1749724949608.687,24,59981
1749724949609.688,24,59968
1749724949610.687,24,59975
1749724949611.688,24,59974
1749724949612.687,24,59963
1749724949613.688,24,59968
1749724949614.687,25,59967
1749724949615.688,25,59965
1749724949616.656,25,59978
1749724949617.656,25,59966
1749724949618.656,25,59963
1749724949619.656,25,59966
1749724949620.656,25,59969
1749724949621.656,25,59970
1749724949622.656,25,59962
1749724949623.656,25,59966
1749724949624.656,25,59981
1749724949625.656,26,59971
1749724949626.656,26,59962
1749724949627.656,26,59981
1749724949628.656,26,59982
1749724949629.656,26,59976
1749724949630.656,26,59983
1749724949631.656,26,59983
1749724949632.437,26,59987
1749724949633.438,26,59976
1749724949634.437,26,59978
1749724949635.438,26,59985
1749724949636.437,27,59980
1749724949637.438,27,59981
1749724949638.437,27,59976
1749724949639.438,27,59986
1749724949640.4368,27,59976
1749724949641.438,27,59975
1749724949642.437,27,59983
1749724949643.438,27,59979
1749724949644.437,27,59982
1749724949645.438,27,59980
1749724949646.437,27,59969
1749724949647.438,28,59973
1749724949648.344,28,59972
1749724949649.344,28,59981
1749724949650.344,28,59982
1749724949651.344,28,59974
1749724949652.344,28,59981
1749724949653.344,28,59984
1749724949654.344,28,59971
1749724949655.344,28,59980
1749724949656.344,28,59980
1749724949657.344,28,59974
1749724949658.344,29,59975
1749724949659.344,29,59983
1749724949660.344,29,59986
1749724949661.344,29,59982
1749724949662.344,29,59967
1749724949663.344,29,59980
1749724949664.219,29,59980
1749724949665.219,29,59974
1749724949666.219,29,59966
1749724949667.219,29,59970
1749724949668.219,29,59967
1749724949669.219,30,59975
1749724949670.219,30,59977
1749724949671.219,30,59975
1749724949672.219,30,59963
1749724949673.219,30,59978
1749724949674.219,30,59972
1749724949675.219,30,59979
1749724949676.219,30,59971
1749724949677.219,30,59971
1749724949678.219,30,59981
1749724949679.219,30,59972
1749724949680.156,31,59991
1749724949681.156,31,59968
1749724949682.156,31,59970
1749724949683.156,31,59981
1749724949684.156,31,59984
1749724949685.156,31,59982
1749724949686.156,31,59972
1749724949687.156,31,59972
1749724949688.156,31,59972
1749724949689.156,31,59978
1749724949690.156,31,59976
1749724949691.156,32,59987
1749724949692.156,32,59994
1749724949693.156,32,59976
1749724949694.156,32,59995
1749724949695.156,32,59978
1749724949696.0,32,59980
1749724949697.0,32,59966
1749724949698.0,32,59981
1749724949699.0,32,59976
1749724949700.0,32,59986
1749724949701.0,32,59976
1749724949702.0,33,59990
1749724949703.0,33,59969
1749724949704.0,33,59969
1749724949705.0,33,59981
1749724949706.0,33,59968
1749724949707.0,33,59964
1749724949708.0,33,59982
1749724949709.0,33,59978
1749724949710.0,33,59973
1749724949711.0,33,59966
1749724949711.875,33,59972
1749724949712.875,34,59978
1749724949713.875,34,59989
1749724949714.875,34,59978
1749724949715.875,34,59974
1749724949716.875,34,59985
1749724949717.875,34,59972
1749724949718.875,34,59987
1749724949719.875,34,59989
1749724949720.875,34,59978
1749724949721.875,34,59984
1749724949722.875,34,59979
1749724949723.875,35,59973
1749724949724.875,35,59981
1749724949725.875,35,59980
1749724949726.875,35,59972
1749724949727.781,35,59976
1749724949728.781,35,59971
1749724949729.781,35,59971
1749724949730.781,35,59978
1749724949731.781,35,59974
1749724949732.781,35,59969
1749724949733.781,35,59979
1749724949734.781,36,59978
1749724949735.781,36,59979
1749724949736.7808,36,59973
1749724949737.781,36,59983
1749724949738.781,36,59976
1749724949739.781,36,59971
1749724949740.781,36,59972
1749724949741.781,36,59981
1749724949742.781,36,59990
1749724949743.656,36,59972
1749724949744.656,36,59974
1749724949745.656,37,59969
1749724949746.656,37,59975
1749724949747.656,37,59964
1749724949748.656,37,59985
1749724949749.656,37,59970
1749724949750.656,37,59975
1749724949751.656,37,59968
1749724949752.656,37,59979
1749724949753.656,37,59980
1749724949754.656,37,59987
1749724949755.656,37,59990
1749724949756.656,38,59973
1749724949757.656,38,59969
1749724949758.656,38,59984
1749724949759.594,38,59977
1749724949760.594,38,59977
1749724949761.594,38,59990
1749724949762.594,38,59984
1749724949763.594,38,59974
1749724949764.594,38,59981
1749724949765.594,38,59978
1749724949766.594,38,59978
1749724949767.594,39,59969
1749724949768.594,39,59991
1749724949769.594,39,59973
1749724949770.594,39,59975
1749724949771.594,39,59973
1749724949772.594,39,59977
1749724949773.594,39,59968
1749724949774.594,39,59980
1749724949775.469,39,59980
1749724949776.469,39,59986
1749724949777.469,39,59964
1749724949778.469,40,59972
1749724949779.469,40,59974
1749724949780.469,40,59982
1749724949781.469,40,59974
1749724949782.469,40,59963
1749724949783.469,40,59975
1749724949784.469,40,59978
1749724949785.469,40,59966
1749724949786.469,40,59987
1749724949787.469,40,59986
1749724949788.469,40,59980
1749724949789.469,41,59972
1749724949790.469,41,59970
1749724949791.344,41,59977
1749724949792.344,41,59955
1749724949793.344,41,59967
1749724949794.344,41,59972
1749724949795.344,41,59972
1749724949796.344,41,59995
1749724949797.344,41,59974
1749724949798.344,41,59975
1749724949799.344,41,59984
1749724949800.344,42,59975
1749724949801.344,42,59976
1749724949802.344,42,59976
1749724949803.344,42,59978
1749724949804.344,42,59970
1749724949805.344,42,59966
1749724949806.344,42,59987
1749724949807.25,42,59972
1749724949808.25,42,59994
1749724949809.25,42,59972
1749724949810.25,42,59974
1749724949811.25,43,59976
1749724949812.25,43,59983
1749724949813.25,43,59970
1749724949814.25,43,59981
1749724949815.25,43,59986
1749724949816.25,43,59975
1749724949817.25,43,59967
1749724949818.25,43,59982
1749724949819.25,43,59974
1749724949820.25,43,59983
1749724949821.25,43,59974
1749724949822.25,44,59980
1749724949823.125,44,59985
1749724949824.125,44,59977
1749724949825.125,44,59986
1749724949826.125,44,59980
1749724949827.125,44,59980
1749724949828.125,44,59973
1749724949829.125,44,59972
1749724949830.125,44,59977
1749724949831.125,44,59980
1749724949832.125,44,59975
1749724949833.125,45,59993
1749724949834.125,45,59986
1749724949835.125,45,59974
1749724949836.125,45,59987
1749724949837.125,45,59985
1749724949838.125,45,59988
1749724949839.031,45,59976
1749724949840.031,45,59973
1749724949841.031,45,59980
1749724949842.031,45,59973
1749724949843.031,45,59973
1749724949844.031,46,59974
1749724949845.031,46,59982
1749724949846.031,46,59977
1749724949847.031,46,59986
1749724949848.031,46,59973
1749724949849.031,46,59966
1749724949850.031,46,59987
1749724949851.031,46,59981
1749724949852.031,46,59980
1749724949853.031,46,59976
1749724949854.031,46,59985
1749724949854.906,47,59970
1749724949855.906,47,59989
1749724949856.906,47,59972
1749724949857.906,47,59973
1749724949858.906,47,59974
1749724949859.906,47,59990
1749724949860.906,47,59984
1749724949861.906,47,59977
1749724949862.906,47,59972
1749724949863.906,47,59978
1749724949864.906,47,59972
1749724949865.906,48,59976
1749724949866.906,48,59987
1749724949867.906,48,59970
1749724949868.906,48,59983
1749724949869.906,48,59981
1749724949870.812,48,59972
1749724949871.813,48,59968
1749724949872.812,48,59985
1749724949873.813,48,59983
1749724949874.8118,48,59975
1749724949875.813,48,59987
1749724949876.812,49,59966
1749724949877.813,49,59981
1749724949878.812,49,59973
1749724949879.813,49,59987
1749724949880.812,49,59976
1749724949881.813,49,59983
1749724949882.812,49,59981
1749724949883.812,49,59978
1749724949884.813,49,59975
1749724949885.812,49,59977
1749724949886.719,49,59982
1749724949887.719,50,59984
1749724949888.719,50,59978
1749724949889.719,50,59981
1749724949890.719,50,59963
1749724949891.719,50,59974
1749724949892.719,50,59978
1749724949893.719,50,59971
1749724949894.719,50,59980
1749724949895.719,50,59983
1749724949896.719,50,59982
1749724949897.719,50,59969
1749724949898.719,51,59969
1749724949899.719,51,59969
1749724949900.719,51,59993
1749724949901.719,51,59976
1749724949902.594,51,59967
1749724949903.594,51,59980
1749724949904.594,51,59978
1749724949905.594,51,59970
1749724949906.594,51,59968
1749724949907.594,51,59983
1749724949908.594,51,59973
1749724949909.594,52,59972
1749724949910.594,52,59987
1749724949911.594,52,59975
1749724949912.594,52,59980
1749724949913.594,52,59984
1749724949914.594,52,59986
1749724949915.594,52,59980
1749724949916.594,52,59975
1749724949917.594,52,59987
1749724949918.531,52,59985
1749724949919.531,52,59979
1749724949920.531,53,59979
1749724949921.531,53,59978
1749724949922.531,53,59989
1749724949923.531,53,59989
1749724949924.531,53,59979
1749724949925.531,53,59983
1749724949926.531,53,59974
1749724949927.531,53,59979
1749724949928.531,53,59972
1749724949929.531,53,59989
1749724949930.531,53,59977
1749724949931.531,54,59992
1749724949932.531,54,59990
1749724949933.531,54,59980
1749724949934.406,54,59974
1749724949935.406,54,59983
1749724949936.406,54,59984
1749724949937.406,54,59973
1749724949938.406,54,59986
1749724949939.406,54,59972
1749724949940.406,54,59980
1749724949941.406,54,59971
1749724949942.406,55,59977
1749724949943.406,55,59972
1749724949944.406,55,59976
1749724949945.406,55,59976
1749724949946.406,55,59987
1749724949947.406,55,59978
1749724949948.406,55,59970
1749724949949.406,55,59977
1749724949950.312,55,59975
1749724949951.313,55,59976
1749724949952.312,55,59973
1749724949953.3132,56,59972
1749724949954.312,56,59964
1749724949955.313,56,59964
1749724949956.312,56,59980
1749724949957.313,56,59976
1749724949958.312,56,59968
1749724949959.313,56,59969
1749724949960.312,56,59970
1749724949961.313,56,59968
1749724949962.312,56,59972
1749724949963.312,56,59978
1749724949964.313,57,59981
1749724949965.312,57,59981
1749724949966.188,57,59971
1749724949967.187,57,59980
1749724949968.188,57,59983
1749724949969.187,57,59977
1749724949970.188,57,59975
1749724949971.187,57,59972
1749724949972.188,57,59977
1749724949973.187,57,59979
1749724949974.188,57,59970
1749724949975.188,58,59977
1749724949976.187,58,59985
1749724949977.188,58,59983
1749724949978.187,58,59965
1749724949979.188,58,59973
1749724949980.187,58,59974
1749724949981.188,58,59982
1749724949982.125,58,59987
1749724949983.125,58,59988
1749724949984.125,58,59982
1749724949985.125,58,59968
1749724949986.125,59,59990
1749724949987.125,59,59973
1749724949988.125,59,59977
1749724949989.125,59,59977
1749724949990.125,59,59975
1749724949991.125,59,59975
1749724949992.125,59,59978
1749724949993.125,59,59975
1749724949994.125,59,59972
1749724949995.125,59,59979
1749724949996.125,59,59968
1749724949997.125,60,59984
1749724949998.0,60,59981
1749724949999.0,60,59977
1749724950000.0,60,59971
1749724950001.0,60,59980
1749724950002.0,60,59965
1749724950003.0,60,59980
1749724950004.0,60,59972
1749724950005.0,60,59958
1749724950006.0,60,59963
1749724950007.0,60,59961
1749724950008.0,61,59971
1749724950009.0,61,59969
1749724950010.0,61,59963
1749724950011.0,61,59968
1749724950012.0,61,59990
1749724950013.0,61,59977
1749724950013.875,61,59978
1749724950014.875,61,59983
1749724950015.875,61,59985
1749724950016.875,61,59975
1749724950017.875,61,59964
1749724950018.875,62,59976
1749724950019.875,62,59966
1749724950020.875,62,59978
1749724950021.875,62,59970
1749724950022.875,62,59973
1749724950023.875,62,59968
1749724950024.875,62,59970
1749724950025.875,62,59981
1749724950026.875,62,59969
1749724950027.875,62,59966
1749724950028.875,62,59980
1749724950029.781,63,59969
1749724950030.781,63,59974
1749724950031.781,63,59968
1749724950032.781,63,59971
1749724950033.781,63,59962
1749724950034.781,63,59971
1749724950035.781,63,59974
1749724950036.781,63,59971
1749724950037.781,63,59982
1749724950038.781,63,59967
1749724950039.781,63,59984
1749724950040.781,64,59978
1749724950041.781,64,59977
1749724950042.781,64,59973
1749724950043.781,64,59977
1749724950044.781,64,59980
1749724950045.656,64,59980
1749724950046.656,64,59978
1749724950047.656,64,59988
1749724950048.656,64,59960
1749724950049.656,64,59978
1749724950050.656,64,59974
1749724950051.656,65,59982
1749724950052.656,65,59969
1749724950053.656,65,59973
1749724950054.656,65,59967
1749724950055.656,65,59982
1749724950056.6558,65,59980
1749724950057.656,65,59985
1749724950058.656,65,59976
1749724950059.656,65,59970
1749724950060.656,65,59988
1749724950061.531,65,59979
1749724950062.531,66,59980
1749724950063.531,66,59980
1749724950064.531,66,59979
1749724950065.531,66,59979
1749724950066.531,66,59976
1749724950067.531,66,59967
1749724950068.531,66,59973
1749724950069.531,66,59981
1749724950070.531,66,59975
1749724950071.531,66,59970
1749724950072.531,66,59977
1749724950073.531,67,59986
1749724950074.531,67,59984
1749724950075.531,67,59974
1749724950076.531,67,59970
1749724950077.437,67,59973
1749724950078.438,67,59978
1749724950079.437,67,59975
1749724950080.438,67,59970
1749724950081.437,67,59966
1749724950082.438,67,59976
1749724950083.437,67,59980
1749724950084.438,68,59971
1749724950085.437,68,59980
1749724950086.438,68,59980
1749724950087.437,68,59984
1749724950088.438,68,59985
1749724950089.437,68,59978
1749724950090.438,68,59983
1749724950091.437,68,59978
1749724950092.438,68,59972
1749724950093.313,68,59968
1749724950094.312,68,59959
1749724950095.313,69,59982
1749724950096.312,69,59976
1749724950097.313,69,59972
1749724950098.312,69,59998
1749724950099.313,69,59980
1749724950100.312,69,59974
1749724950101.3132,69,59989
1749724950102.312,69,59973
1749724950103.313,69,59975
1749724950104.312,69,59971
1749724950105.313,69,59971
1749724950106.313,70,59981
1749724950107.312,70,59978
1749724950108.313,70,59963
1749724950109.219,70,59982
1749724950110.219,70,59978
1749724950111.219,70,59971
1749724950112.219,70,59982
1749724950113.219,70,59980
1749724950114.219,70,59975
1749724950115.2192,70,59975
1749724950116.219,70,59982
1749724950117.219,71,59967
1749724950118.219,71,59958
1749724950119.219,71,59962
1749724950120.219,71,59975
1749724950121.219,71,59964
1749724950122.219,71,59971
1749724950123.219,71,59969
1749724950124.219,71,59966
1749724950125.094,71,59959
1749724950126.094,71,59968
1749724950127.094,71,59965
1749724950128.094,72,59989
1749724950129.094,72,59983
1749724950130.094,72,59970
1749724950131.094,72,59979
1749724950132.094,72,59971
1749724950133.094,72,59972
1749724950134.094,72,59981
1749724950135.094,72,59983
1749724950136.094,72,59985
1749724950137.094,72,59970
1749724950138.094,72,59972
1749724950139.094,73,59980
1749724950140.094,73,59971
1749724950140.969,73,59980
1749724950141.969,73,59972
1749724950142.969,73,59966
1749724950143.969,73,59973
1749724950144.969,73,59973
1749724950145.969,73,59965
1749724950146.969,73,59982
1749724950147.969,73,59927
1749724950148.969,73,59872
1749724950149.969,74,59902
1749724950150.969,74,59958
1749724950151.969,74,59970
1749724950152.969,74,59981
1749724950153.969,74,59962
1749724950154.969,74,59974
1749724950155.969,74,59977
1749724950156.875,74,59992
1749724950157.875,74,59977
1749724950158.875,74,59965
1749724950159.875,74,59974
1749724950160.875,75,59976
1749724950161.875,75,59949
1749724950162.875,75,59853
1749724950163.875,75,59522
1749724950164.875,75,58998
1749724950165.875,75,59139
1749724950166.875,75,59736
1749724950167.875,75,59948
1749724950168.875,75,59975
1749724950169.875,75,59980
1749724950170.875,75,59980
1749724950171.875,76,59984
1749724950172.781,76,59975
1749724950173.781,76,59974
1749724950174.781,76,59972
1749724950175.781,76,59984
1749724950176.781,76,59975
1749724950177.781,76,59870
1749724950178.781,76,59364
1749724950179.781,76,57959
1749724950180.781,76,56685
1749724950181.781,76,56841
1749724950182.781,77,58354
1749724950183.781,77,59742
1749724950184.781,77,59971
1749724950185.781,77,59982
1749724950186.781,77,59964
1749724950187.781,77,59967
1749724950188.656,77,59975
1749724950189.656,77,59974
1749724950190.656,77,59978
1749724950191.656,77,59958
1749724950192.656,77,59925
1749724950193.656,78,59460
1749724950194.656,78,57788
1749724950195.656,78,55857
1749724950196.656,78,54326
1749724950197.656,78,54396
1749724950198.656,78,56045
1749724950199.656,78,58584
1749724950200.656,78,59867
1749724950201.656,78,59986
1749724950202.656,78,59983
1749724950203.656,78,59973
1749724950204.563,79,59989
1749724950205.562,79,59973
1749724950206.563,79,59975
1749724950207.562,79,59974
1749724950208.563,79,59777
1749724950209.563,79,58112
1749724950210.562,79,55501
1749724950211.563,79,53352
1749724950212.562,79,51812
1749724950213.563,79,51972
1749724950214.562,79,53799
1749724950215.563,80,56688
1749724950216.562,80,59555
1749724950217.563,80,59970
1749724950218.5618,80,59972
1749724950219.563,80,59978
1749724950220.438,80,59968
1749724950221.437,80,59975
1749724950222.438,80,59967
1749724950223.437,80,59922
1749724950224.438,80,59209
1749724950225.437,80,56337
1749724950226.438,81,53522
1749724950227.437,81,51223
1749724950228.438,81,49582
1749724950229.437,81,49749
1749724950230.438,81,51769
1749724950231.437,81,55200
1749724950232.438,81,58503
1749724950233.437,81,59917
1749724950234.438,81,59974
1749724950235.437,81,59984
1749724950236.281,81,59973
1749724950237.281,82,59987
1749724950238.281,82,59975
1749724950239.281,82,59774
1749724950240.281,82,57487
1749724950241.281,82,54108
1749724950242.281,82,51130
1749724950243.281,82,48748
1749724950244.281,82,47085
1749724950245.281,82,47334
1749724950246.281,82,49581
1749724950247.281,82,52986
1749724950248.281,83,56864
1749724950249.281,83,59661
1749724950250.281,83,59975
1749724950251.281,83,59971
1749724950252.188,83,59979
1749724950253.187,83,59975
1749724950254.188,83,59961
1749724950255.187,83,59249
1749724950256.188,83,55564
1749724950257.187,83,51882
1749724950258.188,83,48716
1749724950259.187,84,46245
1749724950260.187,84,44547
1749724950261.188,84,45000
1749724950262.187,84,47343
1749724950263.188,84,51022
1749724950264.187,84,55070
1749724950265.188,84,58710
1749724950266.187,84,59886
1749724950267.188,84,59971
1749724950268.094,84,59974
1749724950269.094,84,59973
1749724950270.094,85,59868
1749724950271.094,85,57919
1749724950272.094,85,53893
1749724950273.094,85,50080
1749724950274.094,85,47002
1749724950275.094,85,44436
1749724950276.094,85,42554
1749724950277.094,85,42828
1749724950278.094,85,45350
1749724950279.094,85,49149
1749724950280.094,85,53219
1749724950281.094,86,56962
1749724950282.094,86,59529
1749724950283.094,86,59932
1749724950284.063,86,59988
1749724950285.062,86,59964
1749724950286.063,86,59659
1749724950287.062,86,56558
1749724950288.063,86,52394
1749724950289.062,86,48491
1749724950290.062,86,45151
1749724950291.063,86,42492
1749724950292.062,87,40709
1749724950293.063,87,41112
1749724950294.062,87,43799
1749724950295.063,87,47634
1749724950296.062,87,51690
1749724950297.0632,87,55564
1749724950298.062,87,58402
1749724950299.063,87,59763
1749724950299.875,87,59910
1749724950300.875,87,59875
1749724950301.875,87,58856
1749724950302.875,88,55101
1749724950303.875,88,51000
1749724950304.875,88,47144
1749724950305.875,88,43830
1749724950306.875,88,41260
1749724950307.875,88,39492
1749724950308.875,88,39912
1749724950309.875,88,42612
1749724950310.875,88,46417
1749724950311.875,88,50470
1749724950312.875,88,54222
1749724950313.875,89,57431
1749724950314.875,89,59401
1749724950315.75,89,59813
1749724950316.75,89,59694
1749724950317.75,89,57697
1749724950318.75,89,53830
1749724950319.75,89,49719
1749724950320.75,89,45862
1749724950321.75,89,42595
1749724950322.75,89,40063
1749724950323.75,89,38368
1749724950324.75,90,38861
1749724950325.75,90,41621
1749724950326.75,90,45472
1749724950327.75,90,49575
1749724950328.75,90,53352
1749724950329.75,90,56440
1749724950330.75,90,58680
1749724950331.625,90,59592
1749724950332.625,90,59322
1749724950333.625,90,57000
1749724950334.625,90,53145
1749724950335.625,91,48855
1749724950336.625,91,44889
1749724950337.625,91,41584
1749724950338.625,91,39028
1749724950339.625,91,37303
1749724950340.625,91,37805
1749724950341.625,91,40581
1749724950342.625,91,44481
1749724950343.625,91,48818
1749724950344.625,91,52405
1749724950345.625,91,55509
1749724950346.625,92,57811
1749724950347.531,92,59121
1749724950348.531,92,58636
1749724950349.531,92,55871
1749724950350.531,92,51938
1749724950351.531,92,47743
1749724950352.531,92,43852
1749724950353.5308,92,40776
1749724950354.531,92,38275
1749724950355.531,92,36479
1749724950356.531,92,36926
1749724950357.531,93,39687
1749724950358.531,93,43623
1749724950359.531,93,47788
1749724950360.531,93,51608
1749724950361.531,93,54784
1749724950362.531,93,57174
1749724950363.406,93,58665
1749724950364.406,93,58093
1749724950365.406,93,55359
1749724950366.406,93,51446
1749724950367.406,93,47323
1749724950368.406,94,43474
1749724950369.406,94,40212
1749724950370.406,94,37677
1749724950371.406,94,35954
1749724950372.406,94,36458
1749724950373.406,94,39372
1749724950374.406,94,43303
1749724950375.406,94,47423
1749724950376.406,94,51148
1749724950377.4058,94,54256
1749724950378.406,94,56616
1749724950379.313,95,58136
1749724950380.312,95,57596
1749724950381.313,95,54800
1749724950382.312,95,50902
1749724950383.313,95,46304
1749724950384.312,95,42967
1749724950385.313,95,39736
1749724950386.312,95,37226
1749724950387.313,95,35505
1749724950388.312,95,36023
1749724950389.313,95,38837
1749724950390.312,96,42732
1749724950391.313,96,46854
1749724950392.313,96,50656
1749724950393.312,96,53895
1749724950394.313,96,56294
1749724950395.187,96,57783
1749724950396.188,96,57116
1749724950397.187,96,54270
1749724950398.1882,96,50388
1749724950399.187,96,46283
1749724950400.188,96,42461
1749724950401.187,97,39227
1749724950402.188,97,36715
1749724950403.188,97,34997
1749724950404.187,97,35513
1749724950405.188,97,38305
1749724950406.187,97,42180
1749724950407.188,97,46290
1749724950408.187,97,50056
1749724950409.188,97,53164
1749724950410.187,97,55502
1749724950411.094,97,57021
1749724950412.0942,98,56379
1749724950413.094,98,53735
1749724950414.094,98,49870
1749724950415.094,98,45589
1749724950416.094,98,41637
1749724950417.094,98,38291
1749724950418.094,98,35687
1749724950419.094,98,33923
1749724950420.094,98,34431
1749724950421.094,98,37263
1749724950422.094,98,41185
1749724950423.094,99,45307
1749724950424.094,99,49083
1749724950425.094,99,52195
1749724950426.094,99,54528
1749724950427.0,99,55998
1749724950428.0,99,55339
1749724950429.0,99,52467
1749724950430.0,99,48520
1749724950431.0,99,44328
1749724950432.0,99,40412
1749724950433.0,99,37262
1749724950434.0,100,34665
1749724950435.0,100,32810
1749724950436.0,100,33215
1749724950437.0,100,35940
1749724950438.0,100,39809
1749724950439.0,100,43937
1749724950440.0,100,47748
1749724950441.0,100,50971
1749724950442.0,100,53315
1749724950442.875,100,54830
1749724950443.875,100,54223
1749724950444.875,101,51390
1749724950445.875,101,47470
1749724950446.875,101,43292
1749724950447.875,101,39352
1749724950448.875,101,35757
1749724950449.875,101,33375
1749724950450.875,101,31595
1749724950451.875,101,32057
1749724950452.875,101,34907
1749724950453.875,101,38781
1749724950454.875,101,42872
1749724950455.875,102,46608
1749724950456.875,102,49693
1749724950457.875,102,52009
1749724950458.781,102,53513
1749724950459.781,102,52912
1749724950460.781,102,50094
1749724950461.781,102,46196
1749724950462.781,102,42030
1749724950463.781,102,38110
1749724950464.781,102,34773
1749724950465.781,102,32175
1749724950466.781,103,30429
1749724950467.781,103,30917
1749724950468.781,103,33686
1749724950469.781,103,37562
1749724950470.781,103,41698
1749724950471.781,103,45493
1749724950472.781,103,48703
1749724950473.781,103,51057
1749724950474.656,103,52492
1749724950475.656,103,51772
1749724950476.656,103,48866
1749724950477.656,104,44899
1749724950478.656,104,40477
1749724950479.656,104,36802
1749724950480.656,104,33522
1749724950481.656,104,30972
1749724950482.656,104,29259
1749724950483.656,104,29779
1749724950484.656,104,32579
1749724950485.656,104,36527
1749724950486.656,104,40703
1749724950487.656,104,44496
1749724950488.656,105,47644
1749724950489.656,105,50002
1749724950490.563,105,51513
1749724950491.562,105,50908
1749724950492.563,105,48259
1749724950493.562,105,44342
1749724950494.562,105,40021
1749724950495.563,105,36057
1749724950496.562,105,32749
1749724950497.563,105,30229
1749724950498.562,105,28559
1749724950499.563,106,29149
1749724950500.562,106,32059
1749724950501.563,106,36105
1749724950502.562,106,40308
1749724950503.563,106,44160
1749724950504.562,106,47328
1749724950505.563,106,49693
1749724950506.438,106,51195
1749724950507.437,106,50543
1749724950508.438,106,47628
1749724950509.437,106,43635
1749724950510.438,107,39418
1749724950511.437,107,35486
1749724950512.438,107,32335
1749724950513.437,107,29746
1749724950514.438,107,27868
1749724950515.4368,107,28312
1749724950516.438,107,31127
1749724950517.437,107,35019
1749724950518.438,107,39193
1749724950519.437,107,43035
1749724950520.438,107,46228
1749724950521.437,108,48640
1749724950522.344,108,50182
1749724950523.344,108,49562
1749724950524.344,108,46656
1749724950525.344,108,42669
1749724950526.344,108,38457
1749724950527.344,108,34557
1749724950528.344,108,31237
1749724950529.344,108,28669
1749724950530.344,108,26922
1749724950531.344,108,27659
1749724950532.344,109,30369
1749724950533.344,109,34361
1749724950534.344,109,38544
1749724950535.344,109,42321
1749724950536.344,109,45460
1749724950537.344,109,47860
1749724950538.25,109,49425
1749724950539.25,109,48832
1749724950540.25,109,46028
1749724950541.25,109,42135
1749724950542.25,109,37993
1749724950543.25,110,34098
1749724950544.25,110,30770
1749724950545.25,110,28162
1749724950546.25,110,26373
1749724950547.25,110,26847
1749724950548.25,110,29606
1749724950549.25,110,33497
1749724950550.25,110,37645
1749724950551.25,110,41464
1749724950552.25,110,44725
1749724950553.25,110,47153
1749724950554.125,111,48638
1749724950555.125,111,47970
1749724950556.125,111,45048
1749724950557.125,111,41111
1749724950558.125,111,36942
1749724950559.125,111,33056
1749724950560.125,111,29741
1749724950561.125,111,27155
1749724950562.125,111,25454
1749724950563.125,111,26002
1749724950564.125,111,28849
1749724950565.125,112,32799
1749724950566.125,112,36992
1749724950567.125,112,40832
1749724950568.125,112,44043
1749724950569.125,112,46452
1749724950570.031,112,47990
1749724950571.031,112,47402
1749724950572.031,112,44790
1749724950573.031,112,40943
1749724950574.031,112,36683
1749724950575.031,112,32748
1749724950576.031,113,29408
1749724950577.031,113,26890
1749724950578.031,113,25243
1749724950579.031,113,25845
1749724950580.031,113,28737
1749724950581.031,113,32776
1749724950582.031,113,37044
1749724950583.031,113,40982
1749724950584.031,113,44234
1749724950585.031,113,46668
1749724950585.906,113,48232
1749724950586.906,114,47661
1749724950587.9058,114,44851
1749724950588.906,114,40970
1749724950589.906,114,36819
1749724950590.906,114,32900
1749724950591.906,114,29840
1749724950592.906,114,27360
1749724950593.906,114,25595
1749724950594.906,114,26096
1749724950595.906,114,28923
1749724950596.906,114,33173
1749724950597.906,115,37221
1749724950598.906,115,41395
1749724950599.906,115,44464
1749724950600.906,115,46950
1749724950601.8118,115,48574
1749724950602.813,115,48039
1749724950603.812,115,45261
1749724950604.813,115,41375
1749724950605.812,115,37205
1749724950606.813,115,33302
1749724950607.812,115,29987
1749724950608.813,116,27466
1749724950609.812,116,25780
1749724950610.813,116,26340
1749724950611.812,116,29293
1749724950612.813,116,33312
1749724950613.812,116,37511
1749724950614.813,116,41374
1749724950615.813,116,44547
1749724950616.812,116,46958
1749724950617.688,116,48531
1749724950618.687,116,47978
1749724950619.688,117,45194
1749724950620.687,117,41281
1749724950621.688,117,37128
1749724950622.687,117,33258
1749724950623.688,117,29960
1749724950624.687,117,27397
1749724950625.688,117,25658
1749724950626.688,117,26153
1749724950627.687,117,28945
1749724950628.688,117,32907
1749724950629.687,117,37088
1749724950630.688,118,40931
1749724950631.687,118,44214
1749724950632.688,118,46641
1749724950633.594,118,48149
1749724950634.594,118,47482
1749724950635.594,118,44590
1749724950636.594,118,40637
1749724950637.594,118,36465
1749724950638.594,118,32608
1749724950639.594,118,29393
1749724950640.594,118,26932
1749724950641.594,119,25303
1749724950642.594,119,25896
1749724950643.594,119,29095
1749724950644.594,119,32815
1749724950645.594,119,37048
1749724950646.594,119,40913
1749724950647.594,119,44120
1749724950648.594,119,46529
1749724950649.5,119,48080
1749724950650.5,119,47478
1749724950651.5,119,44819
1749724950652.5,120,40949
1749724950653.5,120,36681
1749724950654.5,120,32763
1749724950655.5,120,29461
1749724950656.5,120,26958
1749724950657.5,120,25307
1749724950658.5,120,25933
1749724950659.5,120,28870
1749724950660.5,120,32931
1749724950661.5,120,37221
1749724950662.5,120,41140
1749724950663.5,121,44392
1749724950664.5,121,46888
1749724950665.375,121,48432
1749724950666.375,121,47842
1749724950667.375,121,44983
1749724950668.375,121,41069
1749724950669.375,121,36944
1749724950670.375,121,33110
1749724950671.375,121,30059
1749724950672.375,121,27593
1749724950673.375,121,25839
1749724950674.375,122,26381
1749724950675.375,122,29249
1749724950676.375,122,33283
1749724950677.375,122,37593
1749724950678.375,122,41554
1749724950679.375,122,44855
1749724950680.375,122,47390
1749724950681.281,122,49112
1749724950682.281,122,48515
1749724950683.281,122,45754
1749724950684.281,122,41893
1749724950685.281,123,37771
1749724950686.281,123,33915
1749724950687.281,123,30620
1749724950688.281,123,28055
1749724950689.281,123,26335
1749724950690.281,123,26875
1749724950691.281,123,29813
1749724950692.281,123,33813
1749724950693.281,123,38025
1749724950694.281,123,41843
1749724950695.281,123,45041
1749724950696.281,124,47488
1749724950697.188,124,49075
1749724950698.187,124,48531
1749724950699.188,124,45756
1749724950700.187,124,41885
1749724950701.188,124,37766
1749724950702.187,124,33884
1749724950703.188,124,30535
1749724950704.187,124,27930
1749724950705.188,124,26152
1749724950706.187,124,26644
1749724950707.187,125,29424
1749724950708.188,125,33332
1749724950709.187,125,37483
1749724950710.188,125,41312
1749724950711.1868,125,44586
1749724950712.188,125,46935
1749724950713.062,125,48362
1749724950714.063,125,47663
1749724950715.062,125,44711
1749724950716.063,125,40749
1749724950717.062,125,36555
1749724950718.062,126,32618
1749724950719.063,126,29271
1749724950720.062,126,26713
1749724950721.063,126,24980
1749724950722.062,126,25470
1749724950723.063,126,28231
1749724950724.062,126,32114
1749724950725.063,126,36276
1749724950726.062,126,40110
1749724950727.063,126,43251
1749724950728.062,126,45592
1749724950728.969,127,47091
1749724950729.969,127,46444
1749724950730.969,127,43777
1749724950731.9692,127,39859
1749724950732.969,127,35509
1749724950733.969,127,31482
1749724950734.969,127,28092
1749724950735.969,127,25523
1749724950736.969,127,23864
1749724950737.969,127,24444
1749724950738.969,127,27310
1749724950739.969,128,31324
1749724950740.969,128,35618
1749724950741.969,128,39520
1749724950742.969,128,42735
1749724950743.969,128,45138
1749724950744.844,128,46690
1749724950745.844,128,46076
1749724950746.844,128,43129
1749724950747.844,128,39272
1749724950748.844,128,34953
1749724950749.844,128,31146
1749724950750.844,129,28046
1749724950751.844,129,25537
1749724950752.844,129,23762
1749724950753.844,129,24251
1749724950754.844,129,27060
1749724950755.8442,129,31064
1749724950756.844,129,35352
1749724950757.844,129,39275
1749724950758.844,129,42534
1749724950759.844,129,45004
1749724950760.75,129,46596
1749724950761.75,130,46024
1749724950762.75,130,43185
1749724950763.75,130,39218
1749724950764.75,130,34992
1749724950765.75,130,30626
1749724950766.75,130,27763
1749724950767.75,130,25244
1749724950768.75,130,23565
1749724950769.75,130,24137
1749724950770.75,130,27117
1749724950771.75,130,31134
1749724950772.75,131,35320
1749724950773.75,131,39202
1749724950774.75,131,42388
1749724950775.75,131,44809
1749724950776.625,131,46382
1749724950777.625,131,45806
1749724950778.625,131,42946
1749724950779.625,131,39022
1749724950780.625,131,34857
1749724950781.625,131,30939
1749724950782.625,131,27604
1749724950783.625,132,25035
1749724950784.625,132,23289
1749724950785.625,132,23792
1749724950786.625,132,26597
1749724950787.625,132,30504
1749724950788.625,132,34692
1749724950789.625,132,38544
1749724950790.625,132,41839
1749724950791.625,132,44270
1749724950792.531,132,45779
1749724950793.531,132,45022
1749724950794.531,133,42129
1749724950795.531,133,38131
1749724950796.531,133,33951
1749724950797.531,133,30068
1749724950798.531,133,26810
1749724950799.531,133,24309
1749724950800.531,133,22629
1749724950801.531,133,23193
1749724950802.531,133,26020
1749724950803.531,133,29943
1749724950804.531,133,34142
1749724950805.531,134,38000
1749724950806.531,134,41188
1749724950807.531,134,43587
1749724950808.438,134,45129
1749724950809.438,134,44497
1749724950810.437,134,41831
1749724950811.438,134,37929
1749724950812.437,134,33611
1749724950813.438,134,29627
1749724950814.437,134,26320
1749724950815.438,134,23745
1749724950816.437,135,22067
1749724950817.438,135,22662
1749724950818.437,135,25538
1749724950819.438,135,29547
1749724950820.437,135,33819
1749724950821.438,135,37760
1749724950822.437,135,41033
1749724950823.438,135,43555
1749724950824.313,135,45128
1749724950825.312,135,44567
1749724950826.313,135,41765
1749724950827.312,136,37874
1749724950828.3132,136,33728
1749724950829.312,136,29850
1749724950830.313,136,26767
1749724950831.312,136,24277
1749724950832.313,136,22523
1749724950833.312,136,23073
1749724950834.313,136,25940
1749724950835.312,136,29964
1749724950836.313,136,34293
1749724950837.312,136,38305
1749724950838.312,137,41684
1749724950839.313,137,44241
1749724950840.219,137,45916
1749724950841.219,137,45419
1749724950842.219,137,42668
1749724950843.219,137,38818
1749724950844.219,137,34707
1749724950845.219,137,30833
1749724950846.219,137,27546
1749724950847.219,137,25058
1749724950848.219,137,23405
1749724950849.219,138,23997
1749724950850.219,138,26974
1749724950851.219,138,31002
1749724950852.219,138,35283
1749724950853.219,138,39202
1749724950854.219,138,42468
1749724950855.219,138,44958
1749724950856.094,138,46610
1749724950857.094,138,46130
1749724950858.094,138,43423
1749724950859.094,138,39619
1749724950860.094,139,35545
1749724950861.094,139,31692
1749724950862.094,139,28428
1749724950863.094,139,25940
1749724950864.094,139,24305
1749724950865.094,139,24909
1749724950866.094,139,27797
1749724950867.094,139,31816
1749724950868.094,139,36130
1749724950869.094,139,40090
1749724950870.094,139,43462
1749724950871.094,140,45973
1749724950871.969,140,47551
1749724950872.969,140,46944
1749724950873.969,140,44134
1749724950874.969,140,40256
1749724950875.969,140,35918
1749724950876.969,140,32286
1749724950877.969,140,29063
1749724950878.969,140,26595
1749724950879.969,140,24948
1749724950880.969,140,25516
1749724950881.969,141,28363
1749724950882.969,141,32365
1749724950883.969,141,36617
1749724950884.969,141,40479
1749724950885.969,141,43680
1749724950886.969,141,46090
1749724950887.875,141,47647
1749724950888.875,141,47063
1749724950889.875,141,44452
1749724950890.875,141,40561
1749724950891.875,141,36082
1749724950892.875,142,32301
1749724950893.875,142,28994
1749724950894.875,142,26504
1749724950895.875,142,24861
1749724950896.875,142,25527
1749724950897.875,142,28370
1749724950898.875,142,32460
1749724950899.875,142,36699
1749724950900.875,142,40590
1749724950901.875,142,43805
1749724950902.875,142,46208
1749724950903.781,143,47741
1749724950904.781,143,47119
1749724950905.781,143,44227
1749724950906.781,143,40258
1749724950907.781,143,36073
1749724950908.781,143,32167
1749724950909.781,143,29051
1749724950910.781,143,26528
1749724950911.781,143,24731
1749724950912.781,143,25202
1749724950913.781,143,28421
1749724950914.781,144,31983
1749724950915.781,144,36226
1749724950916.781,144,40135
1749724950917.781,144,43380
1749724950918.781,144,45839
1749724950919.687,144,47428
1749724950920.688,144,46839
1749724950921.6868,144,43961
1749724950922.688,144,39985
1749724950923.687,144,35785
1749724950924.688,144,31891
1749724950925.687,145,28588
1749724950926.688,145,26055
1749724950927.687,145,24334
1749724950928.688,145,24856
1749724950929.688,145,27817
1749724950930.687,145,31789
1749724950931.688,145,35996
1749724950932.687,145,39798
1749724950933.688,145,42961
1749724950934.687,145,45374
1749724950935.531,145,46951
1749724950936.531,146,46353
1749724950937.531,146,43521
1749724950938.531,146,39597
1749724950939.531,146,35422
1749724950940.531,146,31487
1749724950941.531,146,28131
1749724950942.531,146,25511
1749724950943.531,146,23703
1749724950944.531,146,24151
1749724950945.531,146,26875
1749724950946.531,146,30724
1749724950947.531,147,34869
1749724950948.531,147,38694
1749724950949.531,147,41961
1749724950950.531,147,44402
1749724950951.469,147,45903
1749724950952.469,147,45241
1749724950953.469,147,42340
1749724950954.469,147,38424
1749724950955.469,147,34283
1749724950956.469,147,30424
1749724950957.469,147,27169
1749724950958.469,148,24670
1749724950959.469,148,23009
1749724950960.469,148,23606
1749724950961.469,148,26482
1749724950962.469,148,30461
1749724950963.469,148,34695
1749724950964.469,148,38587
1749724950965.469,148,41818
1749724950966.469,148,44246
1749724950967.344,148,45781
1749724950968.344,148,45166
1749724950969.344,149,42506
1749724950970.344,149,38594
1749724950971.344,149,34270
1749724950972.344,149,30258
1749724950973.344,149,26858
1749724950974.344,149,24296
1749724950975.344,149,22595
1749724950976.344,149,23145
1749724950977.344,149,25990
1749724950978.344,149,29965
1749724950979.344,149,34210
1749724950980.344,150,38139
1749724950981.344,150,41531
1749724950982.344,150,43807
1749724950983.25,150,45368
1749724950984.25,150,44764
1749724950985.25,150,41923
1749724950986.25,150,37993
1749724950987.25,150,33803
1749724950988.25,150,29850
1749724950989.25,150,26719
1749724950990.25,150,24185
1749724950991.25,151,22403
1749724950992.25,151,22894
1749724950993.25,151,25696
1749724950994.25,151,29652
1749724950995.25,151,33924
1749724950996.25,151,37831
1749724950997.25,151,41140
1749724950998.25,151,43599
1749724950999.156,151,45183
1749724951000.156,151,44597
1749724951001.156,151,41754
1749724951002.156,152,37814
1749724951003.156,152,33575
1749724951004.156,152,29618
1749724951005.156,152,26311
1749724951006.156,152,23773
1749724951007.156,152,22072
1749724951008.156,152,22624
1749724951009.156,152,25559
1749724951010.156,152,29555
1749724951011.156,152,33835
1749724951012.156,152,37691
1749724951013.156,153,40911
1749724951014.156,153,43377
1749724951015.0,153,44999
1749724951016.0,153,44482
1749724951017.0,153,41725
1749724951018.0,153,37838
1749724951019.0,153,33696
1749724951020.0,153,29816
1749724951021.0,153,26567
1749724951022.0,153,24117
1749724951023.0,153,22476
1749724951024.0,154,23073
1749724951025.0,154,25953
1749724951026.0,154,30318
1749724951027.0,154,34245
1749724951028.0,154,38169
1749724951029.0,154,41526
1749724951030.0,154,44019
1749724951030.906,154,45571
1749724951031.906,154,44938
1749724951032.906,154,42070
1749724951033.906,154,38122
1749724951034.906,155,33988
1749724951035.906,155,30130
1749724951036.906,155,26890
1749724951037.906,155,24415
1749724951038.906,155,22766
1749724951039.906,155,23333
1749724951040.906,155,26199
1749724951041.906,155,30152
1749724951042.906,155,34366
1749724951043.906,155,38237
1749724951044.906,155,41440
1749724951045.906,156,43857
1749724951046.812,156,45433
1749724951047.813,156,44818
1749724951048.812,156,42154
1749724951049.813,156,38238
1749724951050.812,156,33953
1749724951051.813,156,30035
1749724951052.812,156,26780
1749724951053.813,156,24328
1749724951054.812,156,22723
1749724951055.813,156,23389
1749724951056.812,157,26346
1749724951057.813,157,30410
1749724951058.812,157,34718
1749724951059.813,157,38653
1749724951060.812,157,41910
1749724951061.812,157,44358
1749724951062.719,157,45939
1749724951063.719,157,45128
1749724951064.719,157,42455
1749724951065.719,157,38516
1749724951066.719,157,34335
1749724951067.719,158,30433
1749724951068.719,158,27344
1749724951069.719,158,24846
1749724951070.719,158,23055
1749724951071.719,158,23568
1749724951072.719,158,26393
1749724951073.719,158,30373
1749724951074.719,158,34652
1749724951075.7192,158,38607
1749724951076.719,158,41895
1749724951077.719,158,44402
1749724951078.656,159,46027
1749724951079.656,159,45467
1749724951080.656,159,42653
1749724951081.656,159,38745
1749724951082.656,159,34576
1749724951083.656,159,30671
1749724951084.656,159,27369
1749724951085.656,159,24818
1749724951086.656,159,23101
1749724951087.656,159,23676
1749724951088.656,159,26659
1749724951089.656,160,30666
1749724951090.656,160,34919
1749724951091.656,160,38765
1749724951092.656,160,41992
1749724951093.656,160,44526
1749724951094.469,160,46071
1749724951095.469,160,45527
1749724951096.469,160,42751
1749724951097.469,160,38883
1749724951098.469,160,34760
1749724951099.469,160,30886
1749724951100.469,161,27576
1749724951101.469,161,25038
1749724951102.469,161,23344
1749724951103.469,161,23875
1749724951104.469,161,26689
1749724951105.469,161,30633
1749724951106.469,161,34863
1749724951107.469,161,38772
1749724951108.469,161,42139
1749724951109.469,161,44605
1749724951110.344,161,46131
1749724951111.344,162,45481
1749724951112.344,162,42623
1749724951113.344,162,38718
1749724951114.344,162,34571
1749724951115.344,162,30681
1749724951116.344,162,27394
1749724951117.344,162,24914
1749724951118.344,162,23259
1749724951119.344,162,23815
1749724951120.344,162,26646
1749724951121.344,162,30587
1749724951122.344,163,34807
1749724951123.344,163,38741
1749724951124.344,163,41890
1749724951125.344,163,44282
1749724951126.281,163,45816
1749724951127.281,163,45201
1749724951128.281,163,42545
1749724951129.281,163,38644
1749724951130.281,163,34307
1749724951131.281,163,30326
1749724951132.281,163,26780
1749724951133.281,164,24361
1749724951134.281,164,22686
1749724951135.281,164,23267
1749724951136.281,164,26129
1749724951137.281,164,30136
1749724951138.281,164,34424
1749724951139.281,164,38343
1749724951140.281,164,41559
1749724951141.281,164,43967
1749724951142.156,164,45501
1749724951143.156,164,44872
1749724951144.156,165,41995
1749724951145.156,165,38005
1749724951146.156,165,33741
1749724951147.156,165,29798
1749724951148.156,165,26679
1749724951149.156,165,24161
1749724951150.156,165,22361
1749724951151.156,165,22828
1749724951152.156,165,25617
1749724951153.156,165,29597
1749724951154.156,165,33878
1749724951155.156,166,37809
1749724951156.156,166,41078
1749724951157.156,166,43562
1749724951158.062,166,45159
1749724951159.063,166,44593
1749724951160.062,166,41759
1749724951161.063,166,37793
1749724951162.062,166,33554
1749724951163.063,166,29602
1749724951164.062,166,26300
1749724951165.062,166,23778
1749724951166.063,167,22090
1749724951167.062,167,22652
1749724951168.063,167,25610
1749724951169.062,167,29620
1749724951170.063,167,33856
1749724951171.062,167,37695
1749724951172.0632,167,40902
1749724951173.062,167,43363
1749724951173.906,167,44971
1749724951174.906,167,44438
1749724951175.906,167,41493
1749724951176.906,168,37731
1749724951177.906,168,33599
1749724951178.906,168,29717
1749724951179.906,168,26435
1749724951180.906,168,23905
1749724951181.906,168,22194
1749724951182.906,168,22725
1749724951183.906,168,25559
1749724951184.906,168,29489
1749724951185.906,168,33688
1749724951186.906,168,37575
1749724951187.906,169,40891
1749724951188.906,169,43353
1749724951189.844,169,44883
1749724951190.844,169,44228
1749724951191.844,169,41304
1749724951192.844,169,37375
1749724951193.844,169,33219
1749724951194.844,169,29355
1749724951195.844,169,26104
1749724951196.844,169,23591
1749724951197.844,169,21955
1749724951198.844,170,22535
1749724951199.844,170,25411
1749724951200.844,170,29409
1749724951201.844,170,33645
1749724951202.844,170,37531
1749724951203.844,170,40735
1749724951204.844,170,43159
1749724951205.719,170,44727
1749724951206.719,170,44112
1749724951207.719,170,41468
1749724951208.719,170,37577
1749724951209.719,171,33286
1749724951210.719,171,29325
1749724951211.719,171,26008
1749724951212.719,171,23482
1749724951213.719,171,21735
1749724951214.719,171,22403
1749724951215.719,171,25285
1749724951216.719,171,29297
1749724951217.719,171,33565
1749724951218.719,171,37499
1749724951219.719,171,40749
1749724951220.719,172,43208
1749724951221.656,172,44778
1749724951222.656,172,44168
1749724951223.656,172,41313
1749724951224.656,172,37375
1749724951225.656,172,33177
1749724951226.656,172,29266
1749724951227.656,172,26157
1749724951228.656,172,23635
1749724951229.656,172,21861
1749724951230.656,172,22380
1749724951231.656,173,25227
1749724951232.656,173,29215
1749724951233.656,173,33503
1749724951234.656,173,37469
1749724951235.656,173,40789
1749724951236.656,173,43296
1749724951237.531,173,44913
1749724951238.531,173,44347
1749724951239.531,173,41527
1749724951240.531,173,37616
1749724951241.531,173,33443
1749724951242.531,174,29530
1749724951243.531,174,26224
1749724951244.531,174,23727
1749724951245.531,174,22077
1749724951246.531,174,22669
1749724951247.531,174,25637
1749724951248.531,174,29627
1749724951249.531,174,33851
1749724951250.531,174,37681
1749724951251.531,174,40820
1749724951252.531,174,43143
1749724951253.406,175,44595
1749724951254.406,175,43872
1749724951255.406,175,40888
1749724951256.406,175,36808
1749724951257.406,175,32458
1749724951258.406,175,28357
1749724951259.406,175,24935
1749724951260.406,175,22303
1749724951261.406,175,20551
1749724951262.406,175,21055
1749724951263.406,175,23861
1749724951264.406,176,27826
1749724951265.406,176,32118
1749724951266.406,176,36150
1749724951267.406,176,39605
1749724951268.406,176,42184
1749724951269.281,176,43819
1749724951270.281,176,43259
1749724951271.281,176,40488
1749724951272.281,176,36649
1749724951273.281,176,32535
1749724951274.281,176,28737
1749724951275.281,177,25579
1749724951276.281,177,23184
1749724951277.281,177,21611
1749724951278.281,177,22245
1749724951279.281,177,25315
1749724951280.281,177,29179
1749724951281.281,177,33632
1749724951282.281,177,37430
1749724951283.281,177,40689
1749724951284.281,177,43163
1749724951285.187,177,44783
1749724951286.188,178,44249
1749724951287.187,178,41675
1749724951288.188,178,37809
1749724951289.187,178,33547
1749724951290.188,178,29635
1749724951291.187,178,26362
1749724951292.188,178,23888
1749724951293.187,178,22252
1749724951294.188,178,22863
1749724951295.187,178,25770
1749724951296.187,178,29825
1749724951297.188,179,34088
1749724951298.187,179,38001
1749724951299.188,179,41235
1749724951300.187,179,43666
1749724951301.063,179,45215
1749724951302.062,179,44605
1749724951303.063,179,41724
1749724951304.062,179,37731
1749724951305.063,179,33493
1749724951306.062,179,29584
1749724951307.062,179,26506
1749724951308.063,180,24029
1749724951309.062,180,22272
1749724951310.063,180,22784
1749724951311.062,180,25586
1749724951312.063,180,29611
1749724951313.062,180,33880
1749724951314.063,180,37825
1749724951315.062,180,41115
1749724951316.063,180,43622
1749724951316.969,180,45253
1749724951317.969,180,44700
1749724951318.969,181,41875
1749724951319.969,181,37987
1749724951320.969,181,33845
1749724951321.969,181,29976
1749724951322.969,181,26717
1749724951323.969,181,24232
1749724951324.969,181,22567
1749724951325.969,181,23261
1749724951326.969,181,26148
1749724951327.969,181,30168
1749724951328.969,181,34433
1749724951329.969,182,38298
1749724951330.969,182,41528
1749724951331.969,182,44005
1749724951332.812,182,45639
1749724951333.813,182,45096
1749724951334.812,182,42290
1749724951335.813,182,38390
1749724951336.812,182,34301
1749724951337.813,182,30458
1749724951338.812,182,27211
1749724951339.813,182,24711
1749724951340.812,183,23023
1749724951341.813,183,23575
1749724951342.812,183,26409
1749724951343.813,183,30346
1749724951344.812,183,34556
1749724951345.813,183,38438
1749724951346.812,183,41821
1749724951347.812,183,44201
1749724951348.844,183,45718
1749724951349.844,183,45039
1749724951350.844,183,42165
1749724951351.844,184,38233
1749724951352.844,184,34080
1749724951353.844,184,30207
1749724951354.844,184,26948
1749724951355.844,184,24442
1749724951356.844,184,22785
1749724951357.844,184,23350
1749724951358.844,184,26191
1749724951359.844,184,30144
1749724951360.844,184,34364
1749724951361.844,184,38239
1749724951362.844,185,41465
1749724951363.844,185,44099
1749724951364.625,185,45443
1749724951365.625,185,44845
1749724951366.625,185,42212
1749724951367.625,185,38336
1749724951368.625,185,34049
1749724951369.625,185,30084
1749724951370.625,185,26744
1749724951371.625,185,24214
1749724951372.625,185,22558
1749724951373.625,186,23178
1749724951374.625,186,26080
1749724951375.625,186,30102
1749724951376.625,186,34371
1749724951377.625,186,38297
1749724951378.625,186,41508
1749724951379.625,186,43948
1749724951380.531,186,45471
1749724951381.531,186,44817
1749724951382.531,186,41919
1749724951383.531,186,37932
1749724951384.531,187,33683
1749724951385.531,187,29682
1749724951386.531,187,26508
1749724951387.531,187,23961
1749724951388.531,187,22134
1749724951389.531,187,22574
1749724951390.531,187,25324
1749724951391.531,187,29233
1749724951392.531,187,33456
1749724951393.531,187,37384
1749724951394.531,187,40613
1749724951395.531,188,43047
1749724951396.437,188,44608
1749724951397.438,188,43999
1749724951398.438,188,41126
1749724951399.437,188,37160
1749724951400.438,188,32899
1749724951401.437,188,28905
1749724951402.438,188,25551
1749724951403.437,188,22988
1749724951404.438,188,21305
1749724951405.437,188,21863
1749724951406.4382,189,24795
1749724951407.437,189,28774
1749724951408.438,189,33047
1749724951409.437,189,36899
1749724951410.438,189,40097
1749724951411.437,189,42544
1749724951412.281,189,44147
1749724951413.281,189,43601
1749724951414.281,189,40822
1749724951415.281,189,36918
1749724951416.281,189,32755
1749724951417.281,190,28890
1749724951418.281,190,25638
1749724951419.281,190,23143
1749724951420.281,190,21474
1749724951421.281,190,22025
1749724951422.281,190,24859
1749724951423.281,190,28881
1749724951424.2808,190,33087
1749724951425.281,190,36991
1749724951426.281,190,40333
1749724951427.281,190,42811
1749724951428.188,191,44355
1749724951429.187,191,43625
1749724951430.188,191,40828
1749724951431.187,191,36904
1749724951432.188,191,32721
1749724951433.187,191,28875
1749724951434.188,191,25666
1749724951435.187,191,23221
1749724951436.188,191,21618
1749724951437.187,191,22223
1749724951438.188,191,25127
1749724951439.188,192,29141
1749724951440.187,192,33643
1749724951441.188,192,37338
1749724951442.187,192,40550
1749724951443.188,192,42975
1749724951444.094,192,44538
1749724951445.094,192,43942
1749724951446.094,192,41273
1749724951447.094,192,37356
1749724951448.094,192,33061
1749724951449.094,192,29125
1749724951450.094,193,25849
1749724951451.094,193,23386
1749724951452.094,193,21773
1749724951453.094,193,22417
1749724951454.094,193,25374
1749724951455.094,193,29423
1749724951456.094,193,33716
1749724951457.094,193,37662
1749724951458.094,193,40917
1749724951459.094,193,43370
1749724951460.0,193,44946
1749724951461.0,194,44328
1749724951462.0,194,41432
1749724951463.0,194,37453
1749724951464.0,194,33282
1749724951465.0,194,29399
1749724951466.0,194,26336
1749724951467.0,194,23870
1749724951468.0,194,22118
1749724951469.0,194,22654
1749724951470.0,194,25530
1749724951471.0,194,29540
1749724951472.0,195,33826
1749724951473.0,195,37773
1749724951474.0,195,41052
1749724951475.0,195,43540
1749724951475.875,195,45159
1749724951476.875,195,44537
1749724951477.875,195,41675
1749724951478.875,195,37715
1749724951479.875,195,33493
1749724951480.875,195,29536
1749724951481.875,195,26193
1749724951482.875,196,23617
1749724951483.875,196,21883
1749724951484.875,196,22413
1749724951485.875,196,25330
1749724951486.875,196,29297
1749724951487.875,196,33527
1749724951488.875,196,37382
1749724951489.875,196,40611
1749724951490.875,196,43099
1749724951491.781,196,44723
1749724951492.781,196,44209
1749724951493.781,197,41458
1749724951494.781,197,37608
1749724951495.781,197,33521
1749724951496.781,197,29666
1749724951497.781,197,26417
1749724951498.781,197,23916
1749724951499.781,197,22253
1749724951500.781,197,22838
1749724951501.781,197,25748
1749724951502.781,197,29743
1749724951503.781,197,34012
1749724951504.781,198,37965
1749724951505.781,198,41407
1749724951506.781,198,43875
1749724951507.656,198,45445
1749724951508.656,198,44859
1749724951509.656,198,42017
1749724951510.656,198,38149
1749724951511.656,198,34042
1749724951512.656,198,30186
1749724951513.656,198,26725
1749724951514.656,198,24482
1749724951515.656,199,22862
1749724951516.656,199,23448
1749724951517.656,199,26307
1749724951518.656,199,30268
1749724951519.656,199,34509
1749724951520.656,199,38431
1749724951521.656,199,41658
1749724951522.656,199,44069
1749724951523.562,199,45620
1749724951524.563,199,45027
1749724951525.562,199,42398
1749724951526.563,200,38535
1749724951527.562,200,34244
1749724951528.563,200,30274
1749724951529.562,200,26961
1749724951530.562,200,24477
1749724951531.563,200,22878
1749724951532.562,200,23516
1749724951533.563,200,26439
1749724951534.562,200,30485
1749724951535.563,200,34814
1749724951536.562,200,38770
1749724951537.563,201,42013
1749724951538.562,201,44454
1749724951539.469,201,46026
1749724951540.469,201,45430
1749724951541.469,201,42583
1749724951542.469,201,38631
1749724951543.469,201,34401
1749724951544.4692,201,30479
1749724951545.469,201,27384
1749724951546.469,201,24872
1749724951547.469,201,23088
1749724951548.469,202,23564
1749724951549.469,202,26362
1749724951550.469,202,30343
1749724951551.469,202,34633
1749724951552.469,202,38549
1749724951553.469,202,41809
1749724951554.469,202,44278
1749724951555.344,202,45869
1749724951556.344,202,45283
1749724951557.344,202,42435
1749724951558.344,202,38457
1749724951559.344,203,34213
1749724951560.344,203,30256
1749724951561.344,203,26949
1749724951562.344,203,24429
1749724951563.344,203,22738
1749724951564.344,203,23295
1749724951565.344,203,26253
1749724951566.344,203,30259
1749724951567.344,203,34473
1749724951568.3442,203,38291
1749724951569.344,203,41464
1749724951570.344,204,43879
1749724951571.219,204,45455
1749724951572.219,204,44878
1749724951573.219,204,42035
1749724951574.219,204,38111
1749724951575.219,204,33974
1749724951576.219,204,30088
1749724951577.219,204,26810
1749724951578.219,204,24282
1749724951579.219,204,22531
1749724951580.219,204,23108
1749724951581.219,205,26014
1749724951582.219,205,29880
1749724951583.219,205,34085
1749724951584.219,205,37961
1749724951585.219,205,41285
1749724951586.219,205,43746
1749724951587.125,205,45291
1749724951588.125,205,44627
1749724951589.125,205,41749
1749724951590.125,205,37845
1749724951591.125,205,33715
1749724951592.125,206,29881
1749724951593.125,206,26672
1749724951594.125,206,24230
1749724951595.125,206,22599
1749724951596.125,206,23209
1749724951597.125,206,26114
1749724951598.125,206,30589
1749724951599.125,206,34368
1749724951600.125,206,38242
1749724951601.125,206,41444
1749724951602.125,206,43846
1749724951603.031,207,45397
1749724951604.031,207,44762
1749724951605.031,207,42102
1749724951606.031,207,38200
1749724951607.031,207,33900
1749724951608.031,207,29938
1749724951609.031,207,26624
1749724951610.031,207,24113
1749724951611.031,207,22444
1749724951612.031,207,23043
1749724951613.031,207,25927
1749724951614.031,208,29928
1749724951615.031,208,34178
1749724951616.031,208,38085
1749724951617.031,208,41295
1749724951618.031,208,43719
1749724951618.938,208,45246
1749724951619.937,208,44586
1749724951620.938,208,41689
1749724951621.938,208,37693
1749724951622.937,208,33449
1749724951623.938,208,29476
1749724951624.937,209,26304
1749724951625.938,209,23682
1749724951626.937,209,21862
1749724951627.938,209,22308
1749724951628.937,209,25066
1749724951629.938,209,28972
1749724951630.937,209,33167
1749724951631.938,209,37060
1749724951632.937,209,40294
1749724951633.938,209,42724
1749724951634.813,209,44253
1749724951635.812,210,43605
1749724951636.813,210,40689
1749724951637.812,210,36679
1749724951638.813,210,32403
1749724951639.812,210,28384
1749724951640.8132,210,24972
1749724951641.812,210,22352
1749724951642.813,210,20579
1749724951643.812,210,21048
1749724951644.813,210,23887
1749724951645.812,210,27773
1749724951646.813,211,31912
1749724951647.812,211,35707
1749724951648.813,211,38871
1749724951649.812,211,41241
1749724951650.719,211,42775
1749724951651.719,211,42161
1749724951652.719,211,39299
1749724951653.719,211,35345
1749724951654.719,211,31120
1749724951655.719,211,27106
1749724951656.719,211,23809
1749724951657.719,212,21240
1749724951658.719,212,19540
1749724951659.719,212,20067
1749724951660.719,212,22851
1749724951661.719,212,26753
1749724951662.719,212,30946
1749724951663.719,212,34865
1749724951664.719,212,38190
1749724951665.719,212,40652
1749724951666.594,212,42189
1749724951667.594,212,41537
1749724951668.594,213,38671
1749724951669.594,213,34751
1749724951670.594,213,30566
1749724951671.594,213,26727
1749724951672.594,213,23550
1749724951673.594,213,21140
1749724951674.594,213,19576
1749724951675.594,213,20212
1749724951676.594,213,23106
1749724951677.594,213,27120
1749724951678.594,213,31411
1749724951679.594,214,35344
1749724951680.594,214,38599
1749724951681.594,214,41064
1749724951682.5,214,42657
1749724951683.5,214,42103
1749724951684.5,214,39493
1749724951685.5,214,35604
1749724951686.5,214,31292
1749724951687.5,214,27356
1749724951688.5,214,24124
1749724951689.5,214,21714
1749724951690.5,215,20156
1749724951691.5,215,20834
1749724951692.5,215,23802
1749724951693.5,215,27862
1749724951694.5,215,32220
1749724951695.5,215,36193
1749724951696.5,215,39472
1749724951697.5,215,41942
1749724951698.406,215,43527
1749724951699.406,215,42936
1749724951700.406,215,40068
1749724951701.406,216,36102
1749724951702.406,216,31916
1749724951703.406,216,28019
1749724951704.406,216,24964
1749724951705.406,216,22500
1749724951706.406,216,20772
1749724951707.406,216,21307
1749724951708.406,216,24326
1749724951709.406,216,28191
1749724951710.406,216,32479
1749724951711.406,216,36457
1749724951712.406,217,39770
1749724951713.406,217,42290
1749724951714.281,217,43934
1749724951715.281,217,43378
1749724951716.281,217,40523
1749724951717.281,217,36567
1749724951718.281,217,32364
1749724951719.281,217,28494
1749724951720.281,217,25253
1749724951721.281,217,22782
1749724951722.281,217,21142
1749724951723.281,218,21756
1749724951724.281,218,24761
1749724951725.281,218,28776
1749724951726.281,218,33032
1749724951727.281,218,36906
1749724951728.281,218,40142
1749724951729.281,218,42607
1749724951730.156,218,44243
1749724951731.156,218,43696
1749724951732.156,218,40910
1749724951733.156,218,37041
1749724951734.156,219,32923
1749724951735.156,219,29068
1749724951736.156,219,25821
1749724951737.156,219,23316
1749724951738.156,219,21629
1749724951739.156,219,22189
1749724951740.156,219,25027
1749724951741.156,219,28980
1749724951742.156,219,33206
1749724951743.156,219,37125
1749724951744.1558,219,40473
1749724951745.156,220,42978
1749724951746.094,220,44618
1749724951747.094,220,43947
1749724951748.094,220,41092
1749724951749.094,220,37220
1749724951750.094,220,33122
1749724951751.094,220,29317
1749724951752.094,220,26130
1749724951753.094,220,23699
1749724951754.094,220,22106
1749724951755.094,220,22766
1749724951756.094,221,25713
1749724951757.094,221,29733
1749724951758.094,221,34011
1749724951759.094,221,37941
1749724951760.094,221,41207
1749724951761.094,221,43678
1749724951761.969,221,45248
1749724951762.969,221,44671
1749724951763.969,221,42054
1749724951764.969,221,38191
1749724951765.969,221,33922
1749724951766.969,222,29983
1749724951767.969,222,26678
1749724951768.969,222,24190
1749724951769.969,222,22578
1749724951770.969,222,23209
1749724951771.969,222,26130
1749724951772.969,222,30174
1749724951773.969,222,34466
1749724951774.969,222,38430
1749724951775.969,222,41725
1749724951776.969,222,44177
1749724951777.875,223,45754
1749724951778.875,223,45166
1749724951779.875,223,42335
1749724951780.875,223,38406
1749724951781.875,223,34230
1749724951782.875,223,30300
1749724951783.875,223,27181
1749724951784.875,223,24669
1749724951785.875,223,22911
1749724951786.875,223,23425
1749724951787.875,223,26257
1749724951788.875,224,30242
1749724951789.875,224,34544
1749724951790.875,224,38536
1749724951791.875,224,41826
1749724951792.875,224,44316
1749724951793.75,224,45920
1749724951794.75,224,45358
1749724951795.75,224,42539
1749724951796.75,224,38617
1749724951797.75,224,34403
1749724951798.75,224,30444
1749724951799.75,225,27138
1749724951800.75,225,24595
1749724951801.75,225,22885
1749724951802.75,225,23410
1749724951803.75,225,26321
1749724951804.75,225,30280
1749724951805.75,225,34522
1749724951806.75,225,38342
1749724951807.75,225,41515
1749724951808.75,225,43923
1749724951809.625,225,45497
1749724951810.625,226,44924
1749724951811.625,226,41933
1749724951812.625,226,38189
1749724951813.625,226,33880
1749724951814.625,226,30102
1749724951815.625,226,26804
1749724951816.625,226,24261
1749724951817.625,226,22536
1749724951818.625,226,23029
1749724951819.625,226,25806
1749724951820.625,226,29721
1749724951821.625,227,33899
1749724951822.625,227,37736
1749724951823.625,227,41009
1749724951824.625,227,43423
1749724951825.563,227,44903
1749724951826.562,227,44200
1749724951827.563,227,41267
1749724951828.562,227,37262
1749724951829.563,227,33033
1749724951830.562,227,29110
1749724951831.563,227,25856
1749724951832.562,228,23392
1749724951833.563,228,21752
1749724951834.563,228,22318
1749724951835.562,228,25179
1749724951836.563,228,29131
1749724951837.562,228,33314
1749724951838.563,228,37152
1749724951839.562,228,40314
1749724951840.563,228,42672
1749724951841.437,228,44171
1749724951842.438,228,43500
1749724951843.437,229,40759
1749724951844.438,229,36762
1749724951845.438,229,32392
1749724951846.437,229,28385
1749724951847.438,229,25055
1749724951848.437,229,22527
1749724951849.438,229,20865
1749724951850.437,229,21457
1749724951851.438,229,24361
1749724951852.437,229,28347
1749724951853.438,229,32577
1749724951854.437,230,36486
1749724951855.438,230,39696
1749724951856.437,230,42099
1749724951857.344,230,43641
1749724951858.344,230,42946
1749724951859.344,230,40028
1749724951860.344,230,35995
1749724951861.344,230,31755
1749724951862.344,230,27818
1749724951863.344,230,24715
1749724951864.344,230,22207
1749724951865.344,231,20423
1749724951866.344,231,20919
1749724951867.344,231,23725
1749724951868.344,231,27669
1749724951869.344,231,31909
1749724951870.344,231,35847
1749724951871.344,231,39117
1749724951872.344,231,41599
1749724951873.25,231,43208
1749724951874.25,231,42610
1749724951875.25,231,39749
1749724951876.25,232,35791
1749724951877.25,232,31562
1749724951878.25,232,27621
1749724951879.25,232,24305
1749724951880.25,232,21746
1749724951881.25,232,20022
1749724951882.25,232,20559
1749724951883.25,232,23464
1749724951884.25,232,27404
1749724951885.25,232,31601
1749724951886.25,232,35427
1749724951887.25,233,38633
1749724951888.25,233,41098
1749724951889.125,233,42681
1749724951890.125,233,42108
1749724951891.125,233,39296
1749724951892.125,233,35387
1749724951893.125,233,31219
1749724951894.125,233,27328
1749724951895.125,233,24030
1749724951896.125,233,21494
1749724951897.125,233,19819
1749724951898.125,234,20447
1749724951899.125,234,23195
1749724951900.125,234,27131
1749724951901.125,234,31331
1749724951902.125,234,35249
1749724951903.125,234,38616
1749724951904.125,234,41099
1749724951905.031,234,42639
1749724951906.031,234,42022
1749724951907.031,234,39130
1749724951908.031,234,35213
1749724951909.031,235,31063
1749724951910.031,235,27203
1749724951911.031,235,23642
1749724951912.031,235,21543
1749724951913.031,235,19952
1749724951914.031,235,20564
1749724951915.031,235,23441
1749724951916.0308,235,27413
1749724951917.031,235,31647
1749724951918.031,235,35587
1749724951919.031,235,38831
1749724951920.031,236,41252
1749724951920.969,236,42810
1749724951921.969,236,42204
1749724951922.969,236,39548
1749724951923.969,236,35635
1749724951924.969,236,31288
1749724951925.969,236,27276
1749724951926.969,236,23947
1749724951927.969,236,21448
1749724951928.969,236,19841
1749724951929.969,236,20459
1749724951930.969,237,23359
1749724951931.969,237,27382
1749724951932.969,237,31677
1749724951933.969,237,35641
1749724951934.969,237,38895
1749724951935.969,237,41345
1749724951936.812,237,42927
1749724951937.813,237,42343
1749724951938.812,237,39504
1749724951939.813,237,35567
1749724951940.812,237,31276
1749724951941.813,238,27447
1749724951942.812,238,24407
1749724951943.813,238,21966
1749724951944.812,238,20255
1749724951945.813,238,20803
1749724951946.812,238,23664
1749724951947.813,238,27705
1749724951948.812,238,32042
1749724951949.813,238,36041
1749724951950.812,238,39378
1749724951951.813,238,41925
1749724951952.719,239,43592
1749724951953.719,239,43078
1749724951954.719,239,40295
1749724951955.719,239,36375
1749724951956.719,239,32227
1749724951957.719,239,28365
1749724951958.719,239,25132
1749724951959.719,239,22666
1749724951960.719,239,21027
1749724951961.719,239,21634
1749724951962.719,239,24635
1749724951963.719,240,28686
1749724951964.719,240,32985
1749724951965.719,240,36898
1749724951966.719,240,40139
1749724951967.719,240,42621
1749724951968.625,240,44264
1749724951969.625,240,43756
1749724951970.625,240,40950
1749724951971.625,240,37119
1749724951972.625,240,33030
1749724951973.625,240,29209
1749724951974.625,241,25993
1749724951975.625,241,23536
1749724951976.625,241,21897
1749724951977.625,241,22482
1749724951978.625,241,25587
1749724951979.625,241,29355
1749724951980.625,241,33603
1749724951981.625,241,37528
1749724951982.625,241,40880
1749724951983.625,241,43385
1749724951984.531,241,44954
1749724951985.531,242,44318
1749724951986.531,242,41440
1749724951987.531,242,37524
1749724951988.531,242,33411
1749724951989.531,242,29641
1749724951990.531,242,26496
1749724951991.531,242,24130
1749724951992.531,242,22571
1749724951993.531,242,23235
1749724951994.531,242,26208
1749724951995.531,242,30242
1749724951996.531,243,34524
1749724951997.531,243,38452
1749724951998.531,243,41707
1749724951999.531,243,44157
1749724952000.437,243,45750
1749724952001.438,243,45160
1749724952002.437,243,42533
1749724952003.438,243,38669
1749724952004.437,243,34410
1749724952005.438,243,30482
1749724952006.438,243,27202
1749724952007.437,244,24720
1749724952008.438,244,23089
1749724952009.437,244,23721
1749724952010.438,244,26640
1749724952011.437,244,30680
1749724952012.438,244,34975
1749724952013.437,244,38903
1749724952014.438,244,42154
1749724952015.4368,244,44604
1749724952016.344,244,46159
1749724952017.344,244,45528
1749724952018.344,245,42660
1749724952019.344,245,38697
1749724952020.344,245,34487
1749724952021.344,245,30557
1749724952022.344,245,27433
1749724952023.344,245,24811
1749724952024.344,245,23083
1749724952025.344,245,23572
1749724952026.344,245,26384
1749724952027.344,245,30342
1749724952028.344,245,34594
1749724952029.344,246,38512
1749724952030.344,246,41782
1749724952031.344,246,44247
1749724952032.219,246,45814
1749724952033.219,246,45208
1749724952034.219,246,42342
1749724952035.219,246,38386
1749724952036.219,246,34171
1749724952037.219,246,30218
1749724952038.219,246,26865
1749724952039.219,246,24304
1749724952040.219,247,22591
1749724952041.219,247,23121
1749724952042.219,247,26033
1749724952043.219,247,29982
1749724952044.219,247,34169
1749724952045.219,247,38026
1749724952046.219,247,41229
1749724952047.219,247,43641
1749724952048.125,247,45215
1749724952049.125,247,44648
1749724952050.125,247,41845
1749724952051.125,248,37951
1749724952052.125,248,33797
1749724952053.125,248,29866
1749724952054.125,248,26538
1749724952055.125,248,23992
1749724952056.125,248,22290
1749724952057.125,248,22818
1749724952058.125,248,25618
1749724952059.125,248,29777
1749724952060.125,248,33755
1749724952061.125,248,37659
1749724952062.125,249,40959
1749724952063.125,249,43394
1749724952064.0,249,44899
1749724952065.0,249,44218
1749724952066.0,249,41334
1749724952067.0,249,37391
1749724952068.0,249,33186
1749724952069.0,249,29297
1749724952070.0,249,26064
1749724952071.0,249,23599
1749724952072.0,249,21957
1749724952073.0,250,22534
1749724952074.0,250,25370
1749724952075.0,250,29331
1749724952076.0,250,33580
1749724952077.0,250,37453
1749724952078.0,250,40649
1749724952079.0,250,43053
1749724952079.906,250,44594
1749724952080.906,250,43991
1749724952081.906,250,41345
1749724952082.906,250,37422
1749724952083.906,251,33083
1749724952084.906,251,29091
1749724952085.906,251,25808
1749724952086.906,251,23340
1749724952087.9058,251,21729
1749724952088.906,251,22346
1749724952089.906,251,25267
1749724952090.906,251,29580
1749724952091.906,251,33608
1749724952092.906,251,37533
1749724952093.906,251,40771
1749724952094.906,252,43205
1749724952095.75,252,44762
1749724952096.75,252,44146
1749724952097.75,252,41253
1749724952098.75,252,37263
1749724952099.75,252,33057
1749724952100.75,252,29137
1749724952101.75,252,26038
1749724952102.75,252,23538
1749724952103.75,252,21757
1749724952104.75,252,22239
1749724952105.75,253,25069
1749724952106.75,253,29031
1749724952107.75,253,33278
1749724952108.75,253,37211
1749724952109.75,253,40482
1749724952110.75,253,42958
1749724952111.719,253,44556
1749724952112.719,253,43971
1749724952113.719,253,41076
1749724952114.719,253,37089
1749724952115.719,253,32847
1749724952116.719,254,28949
1749724952117.719,254,25670
1749724952118.719,254,23159
1749724952119.719,254,21479
1749724952120.719,254,22051
1749724952121.719,254,25009
1749724952122.719,254,28979
1749724952123.719,254,33189
1749724952124.719,254,37015
1749724952125.719,254,40206
1749724952126.719,254,42759
1749724952127.531,255,44250
1749724952128.531,255,43603
1749724952129.531,255,40867
1749724952130.531,255,36982
1749724952131.531,255,32851
1749724952132.531,255,28979
1749724952133.531,255,25717
1749724952134.531,255,23208
1749724952135.531,255,21509
1749724952136.531,255,22056
1749724952137.531,255,24876
1749724952138.531,256,28801
1749724952139.531,256,32995
1749724952140.531,256,36885
1749724952141.531,256,40213
1749724952142.531,256,42681
1749724952143.438,256,44213
1749724952144.437,256,43563
1749724952145.438,256,40648
1749724952146.437,256,36711
1749724952147.438,256,32545
1749724952148.438,256,28683
1749724952149.437,257,25442
1749724952150.438,257,22947
1749724952151.437,257,21288
1749724952152.438,257,21895
1749724952153.437,257,24780
1749724952154.438,257,28728
1749724952155.437,257,32941
1749724952156.4382,257,36818
1749724952157.437,257,40032
1749724952158.438,257,42425
1749724952159.344,257,43993
1749724952160.344,258,43369
1749724952161.344,258,40705
1749724952162.344,258,36800
1749724952163.344,258,32492
1749724952164.344,258,28526
1749724952165.344,258,25197
1749724952166.344,258,22692
1749724952167.344,258,21075
1749724952168.344,258,21688
1749724952169.344,258,24595
1749724952170.344,258,28618
1749724952171.344,259,32897
1749724952172.344,259,36859
1749724952173.344,259,40288
1749724952174.344,259,42619
1749724952175.219,259,44208
1749724952176.219,259,43628
1749724952177.219,259,40806
1749724952178.219,259,36899
1749724952179.219,259,32738
1749724952180.219,259,28825
1749724952181.219,259,25740
1749724952182.219,260,23256
1749724952183.219,260,21527
1749724952184.219,260,22069
1749724952185.219,260,24923
1749724952186.219,260,28925
1749724952187.219,260,33235
1749724952188.219,260,37255
1749724952189.219,260,40578
1749724952190.219,260,43100
1749724952191.094,260,44728
1749724952192.094,260,44195
1749724952193.094,261,41401
1749724952194.094,261,37437
1749724952195.094,261,33299
1749724952196.094,261,29346
1749724952197.094,261,26090
1749724952198.094,261,23579
1749724952199.094,261,21896
1749724952200.094,261,22449
1749724952201.094,261,25376
1749724952202.094,261,29345
1749724952203.094,261,33601
1749724952204.094,262,37440
1749724952205.094,262,40625
1749724952206.094,262,43060
1749724952207.0,262,44646
1749724952208.0,262,44097
1749724952209.0,262,41301
1749724952210.0,262,37383
1749724952211.0,262,33201
1749724952212.0,262,29321
1749724952213.0,262,26044
1749724952214.0,262,23518
1749724952215.0,263,21812
1749724952216.0,263,22323
1749724952217.0,263,25113
1749724952218.0,263,29042
1749724952219.0,263,33250
1749724952220.0,263,37134
1749724952221.0,263,40439
1749724952222.0,263,42838
1749724952222.875,263,44312
1749724952223.875,263,43604
1749724952224.875,263,40676
1749724952225.875,264,36739
1749724952226.875,264,32496
1749724952227.875,264,28628
1749724952228.875,264,25401
1749724952229.875,264,22939
1749724952230.875,264,21306
1749724952231.875,264,21884
1749724952232.875,264,24755
1749724952233.875,264,28730
1749724952234.875,264,32930
1749724952235.875,264,36803
1749724952236.875,265,40005
1749724952237.875,265,42409
1749724952238.781,265,43957
1749724952239.781,265,43341
1749724952240.781,265,40594
1749724952241.781,265,36692
1749724952242.781,265,32347
1749724952243.781,265,28416
1749724952244.781,265,25154
1749724952245.781,265,22695
1749724952246.781,265,21093
1749724952247.781,266,21742
1749724952248.781,266,24693
1749724952249.781,266,28727
1749724952250.781,266,33000
1749724952251.781,266,36936
1749724952252.781,266,40181
1749724952253.781,266,42619
1749724952254.625,266,44185
1749724952255.625,266,43551
1749724952256.625,266,40654
1749724952257.625,266,36691
1749724952258.625,267,32478
1749724952259.625,267,28555
1749724952260.625,267,25464
1749724952261.625,267,22963
1749724952262.625,267,21169
1749724952263.625,267,21670
1749724952264.625,267,24474
1749724952265.625,267,28429
1749724952266.625,267,32675
1749724952267.625,267,36622
1749724952268.625,267,39902
1749724952269.625,268,42411
1749724952270.531,268,44038
1749724952271.531,268,43467
1749724952272.531,268,40639
1749724952273.531,268,36719
1749724952274.531,268,32536
1749724952275.531,268,28628
1749724952276.531,268,25346
1749724952277.531,268,22809
1749724952278.531,268,21106
1749724952279.531,268,21673
1749724952280.531,269,24975
1749724952281.531,269,28599
1749724952282.531,269,32804
1749724952283.531,269,36631
1749724952284.531,269,39837
1749724952285.531,269,42290
1749724952286.406,269,43895
1749724952287.406,269,43335
1749724952288.406,269,40549
1749724952289.406,269,36671
1749724952290.406,269,32546
1749724952291.406,270,28681
1749724952292.406,270,25404
1749724952293.406,270,22878
1749724952294.406,270,21205
1749724952295.406,270,21746
1749724952296.406,270,24561
1749724952297.406,270,28480
1749724952298.406,270,32679
1749724952299.406,270,36578
1749724952300.406,270,39939
1749724952301.406,270,42401
1749724952302.313,271,43928
1749724952303.313,271,43266
1749724952304.312,271,40402
1749724952305.313,271,36488
1749724952306.312,271,32338
1749724952307.313,271,28467
1749724952308.312,271,25246
1749724952309.313,271,22752
1749724952310.312,271,21140
1749724952311.313,271,21755
1749724952312.3118,271,24625
1749724952313.313,272,28596
1749724952314.312,272,32842
1749724952315.313,272,36777
1749724952316.312,272,40027
1749724952317.313,272,42442
1749724952318.188,272,43999
1749724952319.187,272,43389
1749724952320.188,272,40730
1749724952321.187,272,36822
1749724952322.188,272,32482
1749724952323.187,272,28455
1749724952324.188,273,25115
1749724952325.187,273,22591
1749724952326.188,273,20916
1749724952327.187,273,21478
1749724952328.188,273,24323
1749724952329.187,273,28293
1749724952330.188,273,32533
1749724952331.187,273,36452
1749724952332.187,273,39651
1749724952333.188,273,42033
1749724952334.031,273,43556
1749724952335.031,274,42905
1749724952336.031,274,40001
1749724952337.031,274,36007
1749724952338.031,274,31651
1749724952339.031,274,27745
1749724952340.031,274,24627
1749724952341.031,274,22100
1749724952342.031,274,20303
1749724952343.031,274,20757
1749724952344.031,274,23513
1749724952345.031,274,27450
1749724952346.031,275,32017
1749724952347.031,275,35618
1749724952348.031,275,38873
1749724952349.031,275,41343
1749724952349.938,275,42948
1749724952350.937,275,42374
1749724952351.938,275,39540
1749724952352.937,275,35565
1749724952353.937,275,31313
1749724952354.938,275,27369
1749724952355.937,275,24101
1749724952356.938,276,21619
1749724952357.937,276,19968
1749724952358.938,276,20549
1749724952359.937,276,23516
1749724952360.938,276,27549
1749724952361.937,276,31794
1749724952362.938,276,35656
1749724952363.937,276,38893
1749724952364.938,276,41361
1749724952365.781,276,43007
1749724952366.781,276,42500
1749724952367.781,277,39714
1749724952368.781,277,35833
1749724952369.781,277,31734
1749724952370.781,277,27915
1749724952371.781,277,24710
1749724952372.781,277,22249
1749724952373.781,277,20620
1749724952374.781,277,21207
1749724952375.781,277,24078
1749724952376.781,277,28082
1749724952377.781,277,32314
1749724952378.781,278,36240
1749724952379.781,278,39605
1749724952380.781,278,42101
1749724952381.719,278,43672
1749724952382.719,278,43061
1749724952383.719,278,40167
1749724952384.719,278,36279
1749724952385.719,278,32164
1749724952386.719,278,28356
1749724952387.719,278,25183
1749724952388.719,278,22774
1749724952389.719,279,21192
1749724952390.719,279,21842
1749724952391.719,279,24784
1749724952392.719,279,28831
1749724952393.719,279,33127
1749724952394.719,279,37041
1749724952395.719,279,40274
1749724952396.719,279,42715
1749724952397.594,279,44299
1749724952398.594,279,43699
1749724952399.594,279,41066
1749724952400.594,280,37197
1749724952401.594,280,32925
1749724952402.594,280,28996
1749724952403.594,280,25725
1749724952404.594,280,23251
1749724952405.594,280,21615
1749724952406.594,280,22257
1749724952407.594,280,25171
1749724952408.594,280,29200
1749724952409.594,280,33475
1749724952410.594,280,37407
1749724952411.594,281,40658
1749724952412.594,281,43110
1749724952413.469,281,44724
1749724952414.469,281,44051
1749724952415.469,281,41183
1749724952416.469,281,37219
1749724952417.469,281,33005
1749724952418.469,281,29073
1749724952419.4692,281,25955
1749724952420.469,281,23413
1749724952421.469,281,21591
1749724952422.469,282,22071
1749724952423.469,282,24871
1749724952424.469,282,28806
1749724952425.469,282,33034
1749724952426.469,282,36954
1749724952427.469,282,40215
1749724952428.469,282,42661
1749724952429.375,282,44268
1749724952430.375,282,43670
1749724952431.375,282,40811
1749724952432.375,282,36863
1749724952433.375,283,32653
1749724952434.375,283,28722
1749724952435.375,283,25388
1749724952436.375,283,22832
1749724952437.375,283,21129
1749724952438.375,283,21708
1749724952439.375,283,24667
1749724952440.375,283,28652
1749724952441.375,283,32889
1749724952442.375,283,36764
1749724952443.375,283,40018
1749724952444.375,284,42482
1749724952445.25,284,44103
1749724952446.25,284,43579
1749724952447.25,284,40814
1749724952448.25,284,36962
1749724952449.25,284,32862
1749724952450.25,284,28993
1749724952451.25,284,25743
1749724952452.25,284,23290
1749724952453.25,284,21647
1749724952454.25,284,22235
1749724952455.25,285,25095
1749724952456.25,285,29068
1749724952457.25,285,33327
1749724952458.25,285,37456
1749724952459.25,285,40635
1749724952460.25,285,43132
1749724952461.156,285,44686
1749724952462.156,285,44079
1749724952463.156,285,41214
1749724952464.156,285,37324
1749724952465.156,285,33184
1749724952466.156,286,29325
1749724952467.156,286,26120
1749724952468.156,286,23720
1749724952469.156,286,22154
1749724952470.156,286,22804
1749724952471.1558,286,25713
1749724952472.156,286,29727
1749724952473.156,286,34029
1749724952474.156,286,37938
1749724952475.156,286,41163
1749724952476.156,286,43587
1749724952477.063,287,45139
1749724952478.062,287,44538
1749724952479.063,287,41865
1749724952480.062,287,37945
1749724952481.063,287,33597
1749724952482.062,287,29622
1749724952483.063,287,26312
1749724952484.062,287,23804
1749724952485.063,287,22149
1749724952486.063,287,22734
1749724952487.062,287,25606
1749724952488.063,288,29641
1749724952489.062,288,33903
1749724952490.063,288,37796
1749724952491.062,288,41001
1749724952492.063,288,43393
1749724952492.937,288,44920
1749724952493.938,288,44271
1749724952494.937,288,41351
1749724952495.938,288,37317
1749724952496.938,288,33035
1749724952497.937,288,29065
1749724952498.938,289,25964
1749724952499.937,289,23456
1749724952500.938,289,21675
1749724952501.937,289,22140
1749724952502.938,289,24947
1749724952503.937,289,28898
1749724952504.938,289,33112
1749724952505.937,289,37010
1749724952506.938,289,40238
1749724952507.937,289,42676
1749724952508.812,289,44242
1749724952509.813,290,43619
1749724952510.812,290,40710
1749724952511.813,290,36729
1749724952512.812,290,32507
1749724952513.813,290,28564
1749724952514.812,290,25251
1749724952515.8132,290,22702
1749724952516.812,290,20987
1749724952517.813,290,21525
1749724952518.812,290,24463
1749724952519.813,290,28407
1749724952520.812,291,32585
1749724952521.813,291,36399
1749724952522.812,291,39571
1749724952523.813,291,41981
1749724952524.719,291,43565
1749724952525.719,291,42970
1749724952526.719,291,40105
1749724952527.719,291,36156
1749724952528.719,291,31984
1749724952529.719,291,28131
1749724952530.719,291,24907
1749724952531.719,292,22439
1749724952532.719,292,20787
1749724952533.719,292,21383
1749724952534.719,292,24248
1749724952535.719,292,28213
1749724952536.719,292,32441
1749724952537.719,292,36365
1749724952538.719,292,39720
1749724952539.719,292,42205
1749724952540.625,292,43762
1749724952541.625,292,43104
1749724952542.625,293,40235
1749724952543.625,293,36318
1749724952544.625,293,32170
1749724952545.625,293,28323
1749724952546.625,293,25116
1749724952547.625,293,22659
1749724952548.625,293,21043
1749724952549.625,293,21661
1749724952550.625,293,24538
1749724952551.625,293,28521
1749724952552.625,293,32764
1749724952553.625,294,36677
1749724952554.625,294,39923
1749724952555.625,294,42373
1749724952556.531,294,43956
1749724952557.531,294,43359
1749724952558.531,294,40714
1749724952559.531,294,36826
1749724952560.531,294,32520
1749724952561.531,294,28360
1749724952562.531,294,25233
1749724952563.531,294,22711
1749724952564.531,295,21057
1749724952565.531,295,21678
1749724952566.531,295,24591
1749724952567.531,295,28607
1749724952568.531,295,32871
1749724952569.531,295,36805
1749724952570.531,295,40069
1749724952571.531,295,42501
1749724952572.406,295,44043
1749724952573.406,295,43408
1749724952574.406,295,40522
1749724952575.406,296,36553
1749724952576.406,296,32320
1749724952577.406,296,28351
1749724952578.406,296,25207
1749724952579.406,296,22661
1749724952580.406,296,20852
1749724952581.406,296,21311
1749724952582.406,296,24078
1749724952583.406,296,27998
1749724952584.406,296,32223
1749724952585.406,296,36182
1749724952586.406,297,39458
1749724952587.406,297,41923
1749724952588.312,297,43513
1749724952589.313,297,42927
1749724952590.312,297,40077
1749724952591.313,297,36134
1749724952592.312,297,31898
1749724952593.313,297,27935
1749724952594.312,297,24605
1749724952595.313,297,21960
1749724952596.312,297,20376
1749724952597.313,298,20947
1749724952598.312,298,23888
1749724952599.313,298,27864
1749724952600.312,298,32121
1749724952601.3132,298,35993
1749724952602.312,298,39191
1749724952603.313,298,41631
1749724952604.188,298,43238
1749724952605.187,298,42689
1749724952606.188,298,39901
1749724952607.187,298,36007
1749724952608.188,299,31751
1749724952609.1868,299,27979
1749724952610.188,299,24750
1749724952611.187,299,22275
1749724952612.188,299,20633
1749724952613.187,299,21210
1749724952614.188,299,24062
1749724952615.187,299,28051
1749724952616.188,299,32312
1749724952617.188,299,36239
1749724952618.187,299,39587
1749724952619.188,300,42070
1749724952620.094,300,43622
1749724952621.094,300,42995
1749724952622.094,300,40097
1749724952623.094,300,36146
1749724952624.094,300,31959
1749724952625.094,300,28094
1749724952626.094,300,24915
1749724952627.094,300,22505
1749724952628.094,300,20925
1749724952629.094,300,21544
1749724952630.094,301,24463
1749724952631.094,301,28484
1749724952632.094,301,32710
1749724952633.094,301,36611
1749724952634.094,301,39830
1749724952635.094,301,42249
1749724952636.0,301,43799
1749724952637.0,301,43184
1749724952638.0,301,40491
1749724952639.0,301,36553
1749724952640.0,301,32231
1749724952641.0,302,28261
1749724952642.0,302,24955
1749724952643.0,302,22449
1749724952644.0,302,20802
1749724952645.0,302,21405
1749724952646.0,302,24582
1749724952647.0,302,28328
1749724952648.0,302,32579
1749724952649.0,302,36501
1749724952650.0,302,39739
1749724952651.0,302,42166
1749724952651.875,303,43729
1749724952652.875,303,43095
1749724952653.875,303,40178
1749724952654.875,303,36184
1749724952655.875,303,31990
1749724952656.875,303,28106
1749724952657.875,303,25060
1749724952658.875,303,22607
1749724952659.875,303,20871
1749724952660.875,303,21381
1749724952661.875,303,24256
1749724952662.875,304,28231
1749724952663.875,304,32490
1749724952664.875,304,36440
1749724952665.875,304,39721
1749724952666.875,304,42213
1749724952667.781,304,43837
1749724952668.781,304,43251
1749724952669.781,304,40402
1749724952670.781,304,36467
1749724952671.781,304,32264
1749724952672.781,304,28353
1749724952673.781,305,25069
1749724952674.781,305,22535
1749724952675.781,305,20839
1749724952676.781,305,21396
1749724952677.781,305,24327
1749724952678.781,305,28295
1749724952679.781,305,32515
1749724952680.781,305,36362
1749724952681.781,305,39574
1749724952682.781,305,42046
1749724952683.656,305,43668
1749724952684.656,306,43131
1749724952685.656,306,40361
1749724952686.656,306,36506
1749724952687.656,306,32409
1749724952688.656,306,28577
1749724952689.656,306,25354
1749724952690.656,306,22792
1749724952691.656,306,21262
1749724952692.656,306,21866
1749724952693.656,306,24749
1749724952694.656,306,28745
1749724952695.656,307,33013
1749724952696.656,307,36977
1749724952697.656,307,40383
1749724952698.656,307,42920
1749724952699.594,307,44504
1749724952700.594,307,43922
1749724952701.594,307,41076
1749724952702.594,307,37213
1749724952703.594,307,33127
1749724952704.594,307,29321
1749724952705.594,307,26138
1749724952706.594,308,23732
1749724952707.594,308,22174
1749724952708.594,308,22866
1749724952709.594,308,25817
1749724952710.594,308,29866
1749724952711.594,308,34272
1749724952712.594,308,38141
1749724952713.594,308,41402
1749724952714.594,308,43878
1749724952715.469,308,45466
1749724952716.469,308,44907
1749724952717.469,309,42308
1749724952718.469,309,38463
1749724952719.469,309,34207
1749724952720.469,309,30257
1749724952721.469,309,26970
1749724952722.469,309,24519
1749724952723.469,309,22911
1749724952724.469,309,23549
1749724952725.469,309,26467
1749724952726.469,309,30513
1749724952727.469,309,34827
1749724952728.469,310,39115
1749724952729.469,310,42030
1749724952730.469,310,44456
1749724952731.375,310,46008
1749724952732.375,310,45393
1749724952733.375,310,42530
1749724952734.375,310,38579
1749724952735.375,310,34350
1749724952736.375,310,30402
1749724952737.375,310,27281
1749724952738.375,310,24790
1749724952739.375,311,23026
1749724952740.375,311,23525
1749724952741.375,311,26333
1749724952742.375,311,30308
1749724952743.375,311,34525
1749724952744.375,311,38487
1749724952745.375,311,41717
1749724952746.375,311,44157
1749724952747.281,311,45707
1749724952748.281,311,45092
1749724952749.281,311,42218
1749724952750.281,312,38216
1749724952751.281,312,33964
1749724952752.281,312,30015
1749724952753.281,312,26683
1749724952754.281,312,24119
1749724952755.281,312,22384
1749724952756.281,312,22881
1749724952757.281,312,25774
1749724952758.281,312,29723
1749724952759.281,312,33893
1749724952760.281,312,37660
1749724952761.281,313,40792
1749724952762.281,313,43158
1749724952763.188,313,44693
1749724952764.187,313,44076
1749724952765.188,313,41191
1749724952766.187,313,37202
1749724952767.188,313,32971
1749724952768.187,313,29019
1749724952769.188,313,25721
1749724952770.187,313,23201
1749724952771.188,313,21502
1749724952772.187,314,22027
1749724952773.1882,314,25179
1749724952774.187,314,28777
1749724952775.188,314,32951
1749724952776.187,314,36800
1749724952777.188,314,40086
1749724952778.188,314,42499
1749724952779.094,314,43966
1749724952780.094,314,43229
1749724952781.094,314,40251
1749724952782.094,314,36258
1749724952783.094,315,32050
1749724952784.094,315,28149
1749724952785.094,315,24893
1749724952786.094,315,22397
1749724952787.0942,315,20741
1749724952788.094,315,21313
1749724952789.094,315,24154
1749724952790.094,315,28086
1749724952791.094,315,32272
1749724952792.094,315,36128
1749724952793.094,315,39312
1749724952794.094,316,41700
1749724952794.969,316,43215
1749724952795.969,316,42542
1749724952796.969,316,39798
1749724952797.969,316,35823
1749724952798.969,316,31482
1749724952799.969,316,27512
1749724952800.969,316,24210
1749724952801.969,316,21711
1749724952802.969,316,20058
1749724952803.969,316,20672
1749724952804.969,317,23558
1749724952805.969,317,27565
1749724952806.969,317,31806
1749724952807.969,317,35723
1749724952808.969,317,38957
1749724952809.969,317,41390
1749724952810.875,317,43017
1749724952811.875,317,42304
1749724952812.875,317,39414
1749724952813.875,317,35437
1749724952814.875,317,31204
1749724952815.875,318,27287
1749724952816.875,318,24189
1749724952817.875,318,21679
1749724952818.875,318,19908
1749724952819.875,318,20409
1749724952820.875,318,23216
1749724952821.875,318,27164
1749724952822.875,318,31411
1749724952823.875,318,35353
1749724952824.875,318,38648
1749724952825.875,318,41155
1749724952826.781,319,42759
1749724952827.781,319,42195
1749724952828.781,319,39365
1749724952829.781,319,35441
1749724952830.781,319,31248
1749724952831.781,319,27348
1749724952832.781,319,24046
1749724952833.781,319,21521
1749724952834.781,319,19849
1749724952835.781,319,20458
1749724952836.781,319,23430
1749724952837.781,320,27429
1749724952838.781,320,31605
1749724952839.781,320,35532
1749724952840.781,320,38796
1749724952841.781,320,41217
1749724952842.688,320,42804
1749724952843.687,320,42249
1749724952844.688,320,39440
1749724952845.687,320,35548
1749724952846.688,320,31404
1749724952847.687,320,27514
1749724952848.688,321,24246
1749724952849.687,321,21776
1749724952850.688,321,20131
1749724952851.687,321,20703
1749724952852.688,321,23547
1749724952853.687,321,27498
1749724952854.688,321,31726
1749724952855.687,321,35843
1749724952856.688,321,39028
1749724952857.687,321,41518
1749724952858.594,321,43071
1749724952859.594,322,42450
1749724952860.594,322,39565
1749724952861.594,322,35649
1749724952862.594,322,31477
1749724952863.594,322,27615
1749724952864.594,322,24423
1749724952865.594,322,21999
1749724952866.594,322,20404
1749724952867.594,322,21023
1749724952868.594,322,23902
1749724952869.594,322,27894
1749724952870.594,323,32170
1749724952871.594,323,36112
1749724952872.5942,323,39343
1749724952873.594,323,41802
1749724952874.469,323,43373
1749724952875.469,323,42780
1749724952876.469,323,40090
1749724952877.469,323,36215
1749724952878.469,323,31919
1749724952879.469,323,27940
1749724952880.469,323,24677
1749724952881.469,324,22215
1749724952882.469,324,20613
1749724952883.469,324,21254
1749724952884.469,324,24180
1749724952885.469,324,28265
1749724952886.469,324,32567
1749724952887.469,324,36523
1749724952888.469,324,39798
1749724952889.469,324,42255
1749724952890.375,324,43843
1749724952891.375,324,43249
1749724952892.375,325,40383
1749724952893.375,325,36410
1749724952894.375,325,32188
1749724952895.375,325,28292
1749724952896.375,325,25262
1749724952897.375,325,22826
1749724952898.375,325,21123
1749724952899.375,325,21667
1749724952900.375,325,24556
1749724952901.375,325,28580
1749724952902.375,325,32869
1749724952903.375,326,36837
1749724952904.375,326,40142
1749724952905.375,326,42645
1749724952906.281,326,44262
1749724952907.281,326,43695
1749724952908.281,326,40830
1749724952909.281,326,36899
1749724952910.281,326,32724
1749724952911.281,326,28833
1749724952912.281,326,25572
1749724952913.281,326,23088
1749724952914.281,327,21432
1749724952915.281,327,22039
1749724952916.281,327,25037
1749724952917.281,327,29043
1749724952918.281,327,33292
1749724952919.281,327,37142
1749724952920.281,327,40354
1749724952921.281,327,42801
1749724952922.188,327,44413
1749724952923.187,327,43751
1749724952924.188,327,41048
1749724952925.187,328,37170
1749724952926.188,328,33055
1749724952927.187,328,29209
1749724952928.188,328,25976
1749724952929.187,328,23512
1749724952930.188,328,21859
1749724952931.187,328,22454
1749724952932.188,328,25360
1749724952933.187,328,29372
1749724952934.188,328,33622
1749724952935.187,328,37538
1749724952936.188,329,40875
1749724952937.187,329,43351
1749724952938.125,329,44923
1749724952939.125,329,44247
1749724952940.125,329,41343
1749724952941.125,329,37424
1749724952942.125,329,33285
1749724952943.125,329,29442
1749724952944.125,329,26224
1749724952945.125,329,23773
1749724952946.125,329,22153
1749724952947.125,330,22771
1749724952948.125,330,25663
1749724952949.125,330,29651
1749724952950.125,330,33909
1749724952951.125,330,37815
1749724952952.125,330,41057
1749724952953.125,330,43510
1749724952954.0,330,45073
1749724952955.0,330,44476
1749724952956.0,330,41839
1749724952957.0,330,37950
1749724952958.0,331,33667
1749724952959.0,331,29699
1749724952960.0,331,26400
1749724952961.0,331,23892
1749724952962.0,331,22244
1749724952963.0,331,22882
1749724952964.0,331,25806
1749724952965.0,331,29848
1749724952966.0,331,34136
1749724952967.0,331,38079
1749724952968.0,331,41395
1749724952969.0,332,43791
1749724952969.906,332,45349
1749724952970.906,332,44730
1749724952971.906,332,41875
1749724952972.906,332,37928
1749724952973.906,332,33729
1749724952974.906,332,29788
1749724952975.906,332,26446
1749724952976.906,332,24141
1749724952977.906,332,22355
1749724952978.906,332,22846
1749724952979.906,333,25651
1749724952980.906,333,29604
1749724952981.906,333,33866
1749724952982.906,333,37824
1749724952983.906,333,41095
1749724952984.906,333,43567
1749724952985.813,333,45163
1749724952986.812,333,44584
1749724952987.813,333,41753
1749724952988.812,333,37821
1749724952989.813,333,33613
1749724952990.813,334,29664
1749724952991.812,334,26379
1749724952992.813,334,23863
1749724952993.812,334,22175
1749724952994.813,334,22725
1749724952995.812,334,25652
1749724952996.813,334,29612
1749724952997.812,334,33850
1749724952998.813,334,37679
1749724952999.8118,334,40855
1749724953000.813,334,43256
1749724953001.688,335,44800
1749724953002.687,335,44200
1749724953003.688,335,41363
1749724953004.687,335,37428
1749724953005.688,335,33231
1749724953006.687,335,29323
1749724953007.688,335,26064
1749724953008.687,335,23568
1749724953009.688,335,21893
1749724953010.687,335,22439
1749724953011.688,335,25269
1749724953012.687,336,29232
1749724953013.688,336,33464
1749724953014.687,336,37339
1749724953015.688,336,40643
1749724953016.687,336,43082
1749724953017.594,336,44578
1749724953018.594,336,43882
1749724953019.594,336,40962
1749724953020.594,336,36797
1749724953021.594,336,32735
1749724953022.594,336,28820
1749724953023.594,337,25577
1749724953024.594,337,23117
1749724953025.594,337,21483
1749724953026.594,337,22069
1749724953027.594,337,24934
1749724953028.594,337,28913
1749724953029.594,337,33113
1749724953030.594,337,36972
1749724953031.594,337,40154
1749724953032.594,337,42542
1749724953033.5,337,44066
1749724953034.5,338,43425
1749724953035.5,338,40713
1749724953036.5,338,36759
1749724953037.5,338,32427
1749724953038.5,338,28446
1749724953039.5,338,25135
1749724953040.5,338,22626
1749724953041.5,338,20968
1749724953042.5,338,21578
1749724953043.5,338,24458
1749724953044.5,338,28495
1749724953045.5,339,32740
1749724953046.5,339,36655
1749724953047.5,339,39887
1749724953048.5,339,42310
1749724953049.406,339,43869
1749724953050.406,339,43225
1749724953051.406,339,40303
1749724953052.406,339,36294
1749724953053.406,339,32090
1749724953054.406,339,28192
1749724953055.406,339,25128
1749724953056.406,340,22653
1749724953057.406,340,20899
1749724953058.406,340,21565
1749724953059.406,340,24243
1749724953060.406,340,28202
1749724953061.406,340,32447
1749724953062.406,340,36382
1749724953063.406,340,39653
1749724953064.406,340,42130
1749724953065.313,340,43742
1749724953066.312,340,43144
1749724953067.313,341,40284
1749724953068.312,341,36344
1749724953069.313,341,32148
1749724953070.312,341,28238
1749724953071.312,341,24959
1749724953072.313,341,22435
1749724953073.312,341,20749
1749724953074.313,341,21321
1749724953075.312,341,24261
1749724953076.313,341,28243
1749724953077.312,341,32460
1749724953078.3132,342,36305
1749724953079.312,342,39510
1749724953080.313,342,41966
1749724953081.219,342,43568
1749724953082.219,342,43002
1749724953083.219,342,40203
1749724953084.219,342,36312
1749724953085.219,342,32181
1749724953086.219,342,28316
1749724953087.219,342,25061
1749724953088.219,342,22559
1749724953089.219,343,20895
1749724953090.219,343,21491
1749724953091.219,343,24389
1749724953092.219,343,28364
1749724953093.219,343,32603
1749724953094.219,343,36531
1749724953095.219,343,39904
1749724953096.219,343,42399
1749724953097.094,343,43934
1749724953098.094,343,43300
1749724953099.094,343,40410
1749724953100.094,344,36499
1749724953101.094,344,32358
1749724953102.094,344,28502
1749724953103.094,344,25141
1749724953104.094,344,22835
1749724953105.094,344,21236
1749724953106.094,344,21858
1749724953107.094,344,24743
1749724953108.094,344,28731
1749724953109.094,344,32985
1749724953110.094,344,36934
1749724953111.094,345,40198
1749724953112.094,345,42633
1749724953113.031,345,44217
1749724953114.031,345,43635
1749724953115.031,345,41005
1749724953116.031,345,37131
1749724953117.031,345,32834
1749724953118.031,345,28863
1749724953119.031,345,25562
1749724953120.031,345,22962
1749724953121.031,345,21483
1749724953122.031,346,22130
1749724953123.031,346,25059
1749724953124.031,346,29152
1749724953125.031,346,33418
1749724953126.031,346,37392
1749724953127.031,346,40664
1749724953128.031,346,43112
1749724953128.906,346,44671
1749724953129.906,346,44065
1749724953130.906,346,41209
1749724953131.906,346,37264
1749724953132.906,347,32981
1749724953133.906,347,29130
1749724953134.906,347,26068
1749724953135.906,347,23597
1749724953136.906,347,21858
1749724953137.906,347,22367
1749724953138.906,347,25194
1749724953139.906,347,29187
1749724953140.906,347,33787
1749724953141.906,347,37416
1749724953142.906,347,40674
1749724953143.906,348,43144
1749724953144.844,348,44731
1749724953145.844,348,44142
1749724953146.844,348,41283
1749724953147.844,348,37298
1749724953148.844,348,33049
1749724953149.844,348,29091
1749724953150.844,348,25521
1749724953151.844,348,23280
1749724953152.844,348,21615
1749724953153.8442,348,22184
1749724953154.844,349,25148
1749724953155.844,349,29157
1749724953156.844,349,33374
1749724953157.844,349,37196
1749724953158.844,349,40365
1749724953159.844,349,42772
1749724953160.719,349,44336
1749724953161.719,349,43739
1749724953162.719,349,40869
1749724953163.719,349,36912
1749724953164.719,349,32747
1749724953165.719,350,28855
1749724953166.719,350,25585
1749724953167.719,350,23070
1749724953168.719,350,21385
1749724953169.719,350,21923
1749724953170.719,350,24874
1749724953171.719,350,28688
1749724953172.719,350,32872
1749724953173.719,350,36740
1749724953174.719,350,40039
1749724953175.719,350,42472
1749724953176.594,351,43967
1749724953177.594,351,43277
1749724953178.594,351,40286
1749724953179.594,351,36274
1749724953180.594,351,32091
1749724953181.594,351,28234
1749724953182.594,351,25018
1749724953183.594,351,22573
1749724953184.594,351,20950
1749724953185.594,351,21731
1749724953186.594,351,24437
1749724953187.594,352,28397
1749724953188.594,352,32600
1749724953189.594,352,36474
1749724953190.594,352,39673
1749724953191.594,352,42077
1749724953192.5,352,43627
1749724953193.5,352,42978
1749724953194.5,352,40294
1749724953195.5,352,36370
1749724953196.5,352,32040
1749724953197.5,352,28062
1749724953198.5,353,24743
1749724953199.5,353,22220
1749724953200.5,353,20555
1749724953201.5,353,21157
1749724953202.5,353,24043
1749724953203.5,353,28041
1749724953204.5,353,32288
1749724953205.5,353,36217
1749724953206.5,353,39533
1749724953207.5,353,41918
1749724953208.5,353,43487
1749724953209.5,354,42877
1749724953210.5,354,40015
1749724953211.5,354,36067
1749724953212.5,354,31866
1749724953213.5,354,27960
1749724953214.5,354,24872
1749724953215.5,354,22365
1749724953216.5,354,20601
1749724953217.5,354,21114
1749724953218.5,354,23931
1749724953219.5,354,27898
1749724953220.5,355,32152
1749724953221.5,355,36111
1749724953222.5,355,39417
1749724953223.5,355,42119
1749724953224.313,355,43531
1749724953225.312,355,42958
1749724953226.3132,355,40131
1749724953227.312,355,36209
1749724953228.313,355,32018
1749724953229.312,355,28110
1749724953230.313,355,24812
1749724953231.313,356,22289
1749724953232.312,356,20622
1749724953233.313,356,21223
1749724953234.312,356,24201
1749724953235.313,356,28204
1749724953236.312,356,32450
1749724953237.313,356,36336
1749724953238.312,356,39538
1749724953239.313,356,42027
1749724953240.187,356,43632
1749724953241.188,356,43085
1749724953242.188,357,40287
1749724953243.187,357,36398
1749724953244.188,357,32253
1749724953245.187,357,28354
1749724953246.188,357,25080
1749724953247.187,357,22588
1749724953248.188,357,20926
1749724953249.187,357,21485
1749724953250.1882,357,24317
1749724953251.187,357,28263
1749724953252.188,357,32494
1749724953253.187,358,36431
1749724953254.188,358,39762
1749724953255.187,358,42234
1749724953256.094,358,43767
1749724953257.094,358,43110
1749724953258.094,358,40234
1749724953259.094,358,36310
1749724953260.094,358,32124
1749724953261.094,358,28240
1749724953262.094,358,25004
1749724953263.094,358,22559
1749724953264.094,359,20974
1749724953265.094,359,21607
1749724953266.094,359,24498
1749724953267.094,359,28503
1749724953268.094,359,33162
1749724953269.094,359,36708
1749724953270.094,359,39939
1749724953271.094,359,42370
1749724953272.0,359,43945
1749724953273.0,359,43359
1749724953274.0,359,40716
1749724953275.0,360,36795
1749724953276.0,360,32464
1749724953277.0,360,28518
1749724953278.0,360,25237
1749724953279.0,360,22754
1749724953280.0,360,21119
1749724953281.0,360,21724
1749724953282.0,360,24622
1749724953283.0,360,28667
1749724953284.0,360,32933
1749724953285.0,360,36851
1749724953286.0,361,40086
1749724953287.0,361,42513
1749724953287.906,361,44083
1749724953288.906,361,43374
1749724953289.906,361,40584
1749724953290.906,361,36591
1749724953291.906,361,32363
1749724953292.906,361,28448
1749724953293.906,361,25404
1749724953294.906,361,22949
1749724953295.906,361,21223
1749724953296.906,362,21750
1749724953297.906,362,24612
1749724953298.906,362,28603
1749724953299.906,362,32855
1749724953300.906,362,36789
1749724953301.906,362,40049
1749724953302.906,362,42505
1749724953303.781,362,44083
1749724953304.781,362,43459
1749724953305.781,362,40166
1749724953306.781,362,36557
1749724953307.781,363,32325
1749724953308.781,363,28379
1749724953309.781,363,25061
1749724953310.781,363,22511
1749724953311.781,363,20789
1749724953312.781,363,21327
1749724953313.781,363,24256
1749724953314.781,363,28190
1749724953315.781,363,32362
1749724953316.781,363,36158
1749724953317.781,363,39315
1749724953318.781,364,41708
1749724953319.656,364,43271
1749724953320.656,364,42645
1749724953321.656,364,39752
1749724953322.656,364,35769
1749724953323.656,364,31585
1749724953324.656,364,27722
1749724953325.656,364,24483
1749724953326.656,364,22001
1749724953327.656,364,20335
1749724953328.656,364,20909
1749724953329.656,365,23753
1749724953330.656,365,27697
1749724953331.656,365,31898
1749724953332.656,365,35804
1749724953333.656,365,39135
1749724953334.656,365,41610
1749724953335.562,365,43198
1749724953336.563,365,42501
1749724953337.562,365,39591
1749724953338.563,365,35648
1749724953339.562,365,31475
1749724953340.563,366,27614
1749724953341.562,366,24391
1749724953342.563,366,21917
1749724953343.5618,366,20291
1749724953344.563,366,20889
1749724953345.562,366,23754
1749724953346.563,366,27721
1749724953347.562,366,31940
1749724953348.563,366,35843
1749724953349.562,366,39088
1749724953350.563,366,41538
1749724953351.5,367,43105
1749724953352.5,367,42505
1749724953353.5,367,39859
1749724953354.5,367,35967
1749724953355.5,367,31661
1749724953356.5,367,27706
1749724953357.5,367,24395
1749724953358.5,367,21888
1749724953359.5,367,20260
1749724953360.5,367,20906
1749724953361.5,367,23830
1749724953362.5,368,27874
1749724953363.5,368,32154
1749724953364.5,368,36124
1749724953365.5,368,39429
1749724953366.5,368,41898
1749724953367.375,368,43491
1749724953368.375,368,42910
1749724953369.375,368,40080
1749724953370.375,368,36169
1749724953371.375,368,31887
1749724953372.375,368,28120
1749724953373.375,369,25006
1749724953374.375,369,22613
1749724953375.375,369,20903
1749724953376.375,369,21453
1749724953377.375,369,24309
1749724953378.375,369,28309
1749724953379.375,369,32615
1749724953380.375,369,36629
1749724953381.375,369,39950
1749724953382.375,369,42454
1749724953383.281,369,44085
1749724953384.281,370,43531
1749724953385.281,370,40716
1749724953386.281,370,36798
1749724953387.281,370,32591
1749724953388.281,370,28657
1749724953389.281,370,25358
1749724953390.281,370,22603
1749724953391.281,370,21186
1749724953392.281,370,21770
1749724953393.281,370,24732
1749724953394.281,370,28719
1749724953395.281,371,32982
1749724953396.281,371,36837
1749724953397.281,371,40029
1749724953398.281,371,42461
1749724953399.156,371,44049
1749724953400.156,371,43478
1749724953401.156,371,40671
1749724953402.156,371,36747
1749724953403.156,371,32617
1749724953404.156,371,28673
1749724953405.156,371,25416
1749724953406.156,372,22920
1749724953407.156,372,21254
1749724953408.156,372,21815
1749724953409.156,372,24656
1749724953410.156,372,28644
1749724953411.156,372,32897
1749724953412.156,372,36805
1749724953413.156,372,40150
1749724953414.156,372,42633
1749724953415.062,372,44182
1749724953416.063,372,43539
1749724953417.062,373,40667
1749724953418.063,373,36709
1749724953419.062,373,32557
1749724953420.063,373,28719
1749724953421.062,373,25552
1749724953422.0632,373,23159
1749724953423.062,373,21587
1749724953424.063,373,22233
1749724953425.062,373,25171
1749724953426.063,373,29212
1749724953427.062,373,33475
1749724953428.063,374,37394
1749724953429.062,374,40635
1749724953430.063,374,43076
1749724953430.969,374,44653
1749724953431.969,374,44068
1749724953432.969,374,41410
1749724953433.969,374,37504
1749724953434.969,374,33215
1749724953435.969,374,29287
1749724953436.969,374,26018
1749724953437.969,374,23553
1749724953438.969,375,21939
1749724953439.969,375,22579
1749724953440.969,375,25535
1749724953441.969,375,29600
1749724953442.969,375,33908
1749724953443.969,375,37823
1749724953444.969,375,41047
1749724953445.969,375,43456
1749724953446.875,375,45003
1749724953447.875,375,44366
1749724953448.875,375,41466
1749724953449.875,376,37508
1749724953450.875,376,33315
1749724953451.875,376,29409
1749724953452.875,376,26327
1749724953453.875,376,23764
1749724953454.875,376,22070
1749724953455.875,376,22636
1749724953456.875,376,25397
1749724953457.875,376,29344
1749724953458.875,376,33581
1749724953459.875,376,37479
1749724953460.875,377,40713
1749724953461.875,377,43152
1749724953462.781,377,44714
1749724953463.781,377,44077
1749724953464.781,377,41178
1749724953465.781,377,37189
1749724953466.781,377,32947
1749724953467.781,377,28974
1749724953468.781,377,25636
1749724953469.781,377,23047
1749724953470.781,377,21187
1749724953471.781,378,21794
1749724953472.781,378,24667
1749724953473.781,378,28575
1749724953474.781,378,32729
1749724953475.781,378,36504
1749724953476.781,378,39649
1749724953477.781,378,42043
1749724953478.656,378,43588
1749724953479.656,378,42964
1749724953480.656,378,40100
1749724953481.656,378,36148
1749724953482.656,379,31948
1749724953483.656,379,28025
1749724953484.656,379,24707
1749724953485.656,379,22139
1749724953486.656,379,20411
1749724953487.656,379,20942
1749724953488.656,379,23770
1749724953489.656,379,27682
1749724953490.656,379,31849
1749724953491.656,379,35714
1749724953492.656,379,39029
1749724953493.656,380,41459
1749724953494.562,380,42938
1749724953495.563,380,42260
1749724953496.562,380,39308
1749724953497.563,380,35336
1749724953498.562,380,31136
1749724953499.563,380,27238
1749724953500.562,380,23936
1749724953501.563,380,21483
1749724953502.562,380,19854
1749724953503.563,380,20425
1749724953504.562,381,23268
1749724953505.563,381,27215
1749724953506.562,381,31420
1749724953507.5632,381,35346
1749724953508.562,381,38594
1749724953509.563,381,41017
1749724953510.469,381,42587
1749724953511.469,381,42006
1749724953512.469,381,39376
1749724953513.469,381,35497
1749724953514.469,381,31201
1749724953515.469,382,27249
1749724953516.469,382,23966
1749724953517.469,382,21447
1749724953518.469,382,19943
1749724953519.469,382,20607
1749724953520.469,382,23556
1749724953521.4692,382,27578
1749724953522.469,382,31944
1749724953523.469,382,35954
1749724953524.469,382,39237
1749724953525.469,382,41719
1749724953526.344,383,43327
1749724953527.344,383,42758
1749724953528.344,383,39943
1749724953529.344,383,36031
1749724953530.344,383,31767
1749724953531.344,383,27940
1749724953532.344,383,24913
1749724953533.344,383,22470
1749724953534.344,383,20754
1749724953535.344,383,21288
1749724953536.344,383,24123
1749724953537.344,384,28126
1749724953538.344,384,32745
1749724953539.344,384,36380
1749724953540.344,384,39658
1749724953541.344,384,42149
1749724953542.25,384,43756
1749724953543.25,384,43187
1749724953544.25,384,40348
1749724953545.25,384,36377
1749724953546.25,384,32133
1749724953547.25,384,28186
1749724953548.25,385,24609
1749724953549.25,385,22408
1749724953550.25,385,20758
1749724953551.25,385,21345
1749724953552.25,385,24307
1749724953553.25,385,28330
1749724953554.25,385,32552
1749724953555.25,385,36393
1749724953556.25,385,39589
1749724953557.25,385,42023
1749724953558.094,385,43618
1749724953559.094,386,43054
1749724953560.0942,386,40216
1749724953561.094,386,36274
1749724953562.094,386,32121
1749724953563.094,386,28241
1749724953564.094,386,24982
1749724953565.094,386,22478
1749724953566.094,386,20799
1749724953567.094,386,21355
1749724953568.094,386,24215
1749724953569.094,386,28173
1749724953570.094,387,32381
1749724953571.094,387,36286
1749724953572.094,387,39628
1749724953573.094,387,42101
1749724953574.0,387,43640
1749724953575.0,387,43000
1749724953576.0,387,40058
1749724953577.0,387,36090
1749724953578.0,387,31946
1749724953579.0,387,28124
1749724953580.0,387,24953
1749724953581.0,388,22548
1749724953582.0,388,20967
1749724953583.0,388,21714
1749724953584.0,388,24527
1749724953585.0,388,28521
1749724953586.0,388,32770
1749724953587.0,388,36683
1749724953588.0,388,39925
1749724953589.0,388,42364
1749724953589.906,388,43956
1749724953590.906,388,43349
1749724953591.906,389,40713
1749724953592.906,389,36830
1749724953593.906,389,32551
1749724953594.906,389,28616
1749724953595.906,389,25347
1749724953596.906,389,22867
1749724953597.906,389,21235
1749724953598.906,389,21868
1749724953599.906,389,24787
1749724953600.906,389,28814
1749724953601.906,389,33091
1749724953602.906,390,37032
1749724953603.906,390,40435
1749724953604.906,390,42738
1749724953605.812,390,44316
1749724953606.813,390,43707
1749724953607.812,390,40848
1749724953608.813,390,36904
1749724953609.812,390,32712
1749724953610.813,390,28811
1749724953611.812,390,25726
1749724953612.813,390,23216
1749724953613.812,391,21442
1749724953614.813,391,21932
1749724953615.813,391,24727
1749724953616.812,391,28668
1749724953617.813,391,32896
1749724953618.812,391,36806
1749724953619.813,391,40073
1749724953620.812,391,42541
1749724953621.719,391,44121
1749724953622.719,391,43495
1749724953623.719,391,40620
1749724953624.719,392,36666
1749724953625.719,392,32457
1749724953626.719,392,28527
1749724953627.719,392,25212
1749724953628.719,392,22681
1749724953629.719,392,21007
1749724953630.719,392,21572
1749724953631.719,392,24517
1749724953632.719,392,28501
1749724953633.719,392,32731
1749724953634.719,392,36603
1749724953635.719,393,39843
1749724953636.719,393,42287
1749724953637.563,393,43894
1749724953638.562,393,43342
1749724953639.563,393,40548
1749724953640.562,393,36667
1749724953641.563,393,32542
1749724953642.562,393,28650
1749724953643.563,393,25379
1749724953644.562,393,22877
1749724953645.563,393,21219
1749724953646.562,394,21807
1749724953647.563,394,24669
1749724953648.562,394,28630
1749724953649.563,394,32877
1749724953650.562,394,36987
1749724953651.563,394,40180
1749724953652.562,394,42656
1749724953653.469,394,44202
1749724953654.469,394,43549
1749724953655.469,394,40681
1749724953656.469,394,36767
1749724953657.469,395,32591
1749724953658.469,395,28717
1749724953659.469,395,25517
1749724953660.469,395,23079
1749724953661.469,395,21477
