Local: ,2025-06-12 00:00:00+02:00,tz_sec ,7200
Linux Epoch (ms):,1749679200000.0
PPG Timestamp,PPG,ADXL Timestamp,X,Y,Z
1749724949360.281,217906,1749724949341.3442,102,-1,288
1749724949400.062,218120,1749724949381.062,96,12,283
1749724949419.875,218242,1749724949401.0,103,7,288
1749724949439.75,218365,1749724949420.75,103,6,279
1749724949459.625,218504,1749724949440.687,103,7,286
1749724949479.469,218622,1749724949460.531,91,12,288
1749724949499.344,218756,1749724949480.406,97,9,288
1749724949519.188,218912,1749724949500.25,88,8,291
1749724949539.062,219053,1749724949520.125,79,9,281
1749724949558.937,219187,1749724949540.0,96,11,288
1749724949578.781,219217,1749724949559.875,92,11,286
1749724949598.688,219055,1749724949579.688,103,1,288
1749724949618.5,218788,1749724949599.5942,88,9,284
1749724949638.375,218419,1749724949619.437,92,9,282
1749724949658.25,218070,1749724949639.313,103,12,288
1749724949678.125,217715,1749724949659.188,101,4,282
1749724949698.0,217402,1749724949679.031,93,7,284
1749724949717.812,217198,1749724949698.969,94,12,279
1749724949737.719,217049,1749724949718.75,88,9,289
1749724949757.5632,216954,1749724949738.625,88,9,287
1749724949777.406,216906,1749724949758.469,92,12,284
1749724949797.281,216891,1749724949778.375,92,8,287
1749724949817.156,216883,1749724949798.187,109,0,288
1749724949837.031,216891,1749724949818.063,103,4,288
1749724949856.875,216914,1749724949837.938,97,4,278
1749724949876.75,216872,1749724949857.812,104,8,284
1749724949896.625,216816,1749724949877.656,103,9,281
1749724949916.625,216732,1749724949897.531,95,7,287
1749724949936.375,216662,1749724949917.375,92,16,275
1749724949956.25,216578,1749724949937.281,104,6,288
1749724949976.125,216520,1749724949957.125,104,4,277
1749724949996.0,216478,1749724949977.031,92,6,300
1749724950015.8132,216473,1749724949996.875,102,8,288
1749724950035.687,216517,1749724950016.781,97,7,286
1749724950055.562,216566,1749724950036.594,90,7,284
1749724950075.438,216621,1749724950056.469,103,4,286
1749724950095.281,216733,1749724950076.344,92,6,287
1749724950115.156,216824,1749724950096.219,95,3,288
1749724950135.0,216923,1749724950116.062,89,9,286
1749724950154.844,217038,1749724950135.906,102,7,283
1749724950174.719,217158,1749724950155.781,103,19,283
1749724950194.625,217289,1749724950175.656,102,7,286
1749724950214.469,217414,1749724950195.531,99,9,289
1749724950234.344,217542,1749724950215.375,102,8,291
1749724950254.156,217697,1749724950235.25,102,8,280
1749724950274.031,217806,1749724950255.094,102,14,287
1749724950293.906,217950,1749724950274.937,99,3,284
1749724950313.75,218076,1749724950294.781,95,0,288
1749724950333.594,218222,1749724950314.656,100,7,306
1749724950353.469,218366,1749724950334.563,92,12,287
1749724950373.344,218511,1749724950354.406,103,4,278
1749724950393.219,218651,1749724950374.219,103,6,283
1749724950413.031,218802,1749724950394.125,92,3,290
1749724950432.906,218939,1749724950413.969,99,3,288
1749724950452.781,219112,1749724950433.812,88,6,281
1749724950472.656,219272,1749724950453.687,94,6,283
1749724950492.5,219440,1749724950473.563,88,8,288
1749724950512.375,219591,1749724950493.438,94,11,287
1749724950532.375,219765,1749724950513.312,91,8,291
1749724950552.094,219919,1749724950533.281,99,9,284
1749724950572.0,220087,1749724950553.031,92,14,283
1749724950591.844,220256,1749724950572.906,92,8,283
1749724950611.719,220397,1749724950592.75,95,3,288
1749724950631.562,220513,1749724950612.656,99,9,285
1749724950651.469,220507,1749724950632.5,103,6,284
1749724950671.313,220380,1749724950652.344,104,15,288
1749724950691.188,220112,1749724950672.219,96,6,288
1749724950711.031,219798,1749724950692.094,102,7,279
1749724950730.906,219449,1749724950711.969,94,0,284
1749724950750.781,219156,1749724950731.813,94,9,287
1749724950770.656,218918,1749724950751.688,102,9,288
1749724950790.5,218733,1749724950771.594,99,8,279
1749724950810.375,218626,1749724950791.437,95,9,287
1749724950830.25,218568,1749724950811.281,103,7,288
1749724950850.125,218587,1749724950831.156,96,14,284
1749724950869.969,218604,1749724950851.031,100,9,287
1749724950889.812,218661,1749724950870.906,92,10,288
1749724950909.719,218704,1749724950890.75,100,9,286
1749724950929.594,218703,1749724950910.625,102,3,287
1749724950949.437,218678,1749724950930.469,100,7,279
1749724950969.312,218633,1749724950950.375,103,8,288
1749724950989.188,218573,1749724950970.219,103,7,284
1749724951009.063,218459,1749724950990.094,112,9,291
1749724951028.906,218384,1749724951009.937,92,9,289
1749724951048.75,218324,1749724951029.844,99,9,282
1749724951068.656,218296,1749724951049.688,99,16,288
1749724951088.531,218305,1749724951069.531,103,7,286
1749724951108.344,218303,1749724951089.406,92,14,279
1749724951128.219,218338,1749724951109.281,95,3,288
1749724951148.094,218400,1749724951129.094,99,7,279
1749724951167.969,218473,1749724951149.0,99,9,283
1749724951187.813,218562,1749724951168.906,92,9,284
1749724951207.687,218664,1749724951188.75,95,7,288
1749724951227.562,218713,1749724951208.625,100,11,284
1749724951247.406,218826,1749724951228.438,115,8,288
1749724951267.281,218934,1749724951248.344,104,8,284
1749724951287.125,219028,1749724951268.312,99,7,287
1749724951307.031,219130,1749724951288.063,102,20,288
1749724951326.906,219207,1749724951307.938,103,12,282
1749724951346.719,219283,1749724951327.812,96,7,291
1749724951366.594,219396,1749724951347.656,97,7,288
1749724951386.469,219515,1749724951367.5,96,10,287
1749724951406.313,219609,1749724951387.375,99,24,281
1749724951426.156,219705,1749724951407.25,99,4,288
1749724951446.062,219826,1749724951427.062,104,5,284
1749724951465.937,219936,1749724951446.937,103,12,288
1749724951485.781,220052,1749724951466.844,95,11,283
1749724951505.656,220198,1749724951486.719,94,7,287
1749724951525.531,220320,1749724951506.594,96,7,287
1749724951545.406,220455,1749724951526.437,102,7,281
1749724951565.25,220538,1749724951546.281,104,7,279
1749724951585.125,220488,1749724951566.312,95,5,286
1749724951605.0,220272,1749724951586.031,97,12,286
1749724951624.844,220004,1749724951605.906,93,11,279
1749724951644.719,219654,1749724951625.75,88,9,279
1749724951664.594,219345,1749724951645.656,95,8,286
1749724951684.469,219057,1749724951665.5,84,8,284
1749724951704.344,218841,1749724951685.375,96,12,284
1749724951724.188,218691,1749724951705.281,100,9,280
1749724951744.063,218591,1749724951725.156,112,4,280
1749724951763.937,218559,1749724951744.969,95,11,280
1749724951783.812,218583,1749724951764.844,96,11,271
1749724951803.656,218596,1749724951784.688,92,-1,287
1749724951823.531,218645,1749724951804.594,96,7,289
1749724951843.437,218715,1749724951824.437,103,7,288
1749724951863.281,218760,1749724951844.312,95,0,304
1749724951883.125,218783,1749724951864.281,92,7,284
1749724951903.031,218719,1749724951884.094,93,9,287
1749724951922.906,218697,1749724951903.969,99,6,287
1749724951942.75,218633,1749724951923.812,92,6,279
1749724951962.625,218578,1749724951943.719,96,6,284
1749724951982.5,218570,1749724951963.531,99,11,284
1749724952002.4058,218553,1749724951983.437,102,12,286
1749724952022.25,218580,1749724952003.312,103,8,287
1749724952042.125,218617,1749724952023.1882,103,4,287
1749724952062.0,218715,1749724952043.031,105,6,284
1749724952081.844,218800,1749724952062.906,96,3,278
1749724952101.687,218902,1749724952082.75,92,7,288
1749724952121.594,219011,1749724952102.625,99,9,281
1749724952141.438,219126,1749724952122.5,95,1,281
1749724952161.313,219246,1749724952142.344,104,6,287
1749724952181.125,219359,1749724952162.219,104,7,278
1749724952201.0,219500,1749724952182.094,92,3,284
1749724952220.875,219648,1749724952201.906,104,3,286
1749724952240.75,219765,1749724952221.781,93,11,287
1749724952260.562,219875,1749724952241.656,93,4,280
1749724952280.437,220044,1749724952261.531,92,7,287
1749724952300.313,220157,1749724952281.375,94,7,279
1749724952320.156,220288,1749724952301.219,95,11,280
1749724952340.0,220413,1749724952321.094,99,12,280
1749724952359.844,220537,1749724952340.937,99,6,286
1749724952379.687,220674,1749724952360.75,105,7,284
1749724952399.563,220802,1749724952380.594,94,11,281
1749724952419.375,220955,1749724952400.469,89,9,288
1749724952439.281,221101,1749724952420.344,99,14,287
1749724952459.219,221259,1749724952440.187,99,1,283
1749724952479.031,221388,1749724952460.094,104,6,279
1749724952498.875,221521,1749724952479.938,94,7,288
1749724952518.75,221508,1749724952499.8118,102,7,283
1749724952538.625,221333,1749724952519.625,103,28,281
1749724952558.5,221070,1749724952539.5,101,6,288
1749724952578.344,220743,1749724952559.406,103,9,289
1749724952598.219,220410,1749724952579.25,103,7,287
1749724952618.094,220116,1749724952599.156,99,8,279
1749724952637.969,219904,1749724952619.0,94,8,287
1749724952657.813,219727,1749724952638.875,97,8,287
1749724952677.687,219620,1749724952658.781,92,12,278
1749724952697.562,219577,1749724952678.594,92,11,279
1749724952717.438,219545,1749724952698.438,99,4,288
1749724952737.313,219601,1749724952718.344,92,6,281
1749724952757.187,219587,1749724952738.25,96,8,294
1749724952777.094,219643,1749724952758.094,103,8,286
1749724952796.938,219677,1749724952778.0,103,6,271
1749724952816.813,219651,1749724952797.875,103,9,280
1749724952836.687,219600,1749724952817.687,103,7,288
1749724952856.625,219542,1749724952837.625,96,7,286
1749724952876.406,219480,1749724952857.531,108,7,288
1749724952896.313,219407,1749724952877.344,97,7,284
1749724952916.187,219352,1749724952897.219,99,7,281
1749724952936.094,219344,1749724952917.125,103,8,284
1749724952955.938,219347,1749724952937.0,103,1,288
1749724952975.844,219375,1749724952956.906,102,8,286
1749724952995.687,219440,1749724952976.719,103,16,276
1749724953015.594,219489,1749724952996.594,99,4,278
1749724953035.438,219589,1749724953016.5,96,9,279
1749724953055.344,219682,1749724953036.406,95,9,288
1749724953075.219,219764,1749724953056.219,99,9,287
1749724953095.062,219874,1749724953076.094,94,9,279
1749724953114.938,219989,1749724953096.031,103,3,275
1749724953134.844,220104,1749724953115.844,103,6,279
1749724953154.75,220209,1749724953135.75,89,3,288
1749724953174.594,220341,1749724953155.75,89,9,284
1749724953194.469,220452,1749724953175.531,94,9,284
1749724953214.313,220584,1749724953195.406,102,6,284
1749724953234.219,220689,1749724953215.219,96,8,288
1749724953254.062,220810,1749724953235.094,103,7,288
1749724953274.0,220942,1749724953255.0,96,7,286
1749724953293.844,221051,1749724953274.844,96,9,280
1749724953313.719,221180,1749724953294.75,95,11,286
1749724953333.563,221298,1749724953314.625,112,7,287
1749724953353.438,221430,1749724953334.5,102,7,286
1749724953373.312,221566,1749724953354.344,96,7,280
1749724953393.187,221717,1749724953374.219,104,16,271
1749724953413.031,221849,1749724953394.125,100,6,281
1749724953432.938,221985,1749724953413.969,104,7,283
1749724953452.812,222139,1749724953433.812,106,7,291
1749724953472.656,222251,1749724953453.719,97,8,282
1749724953492.531,222257,1749724953473.625,97,7,286
1749724953512.406,222112,1749724953493.469,94,7,286
1749724953532.281,221849,1749724953513.312,92,12,288
1749724953552.125,221511,1749724953533.187,103,11,279
1749724953572.0,221170,1749724953553.063,104,-1,279
1749724953591.875,220856,1749724953572.906,95,6,282
1749724953611.719,220623,1749724953592.781,95,8,284
1749724953631.594,220434,1749724953612.625,89,8,286
1749724953651.5,220337,1749724953632.5,102,6,288
1749724953671.313,220295,1749724953652.438,97,15,288
1749724953691.219,220266,1749724953672.219,95,5,288
1749724953711.062,220288,1749724953692.094,99,7,283
1749724953730.937,220318,1749724953712.0,102,8,280
1749724953750.781,220360,1749724953731.844,99,11,287
1749724953770.688,220391,1749724953751.719,89,7,286
1749724953790.531,220365,1749724953771.594,92,15,286
1749724953810.406,220338,1749724953791.469,94,4,294
1749724953830.281,220267,1749724953811.313,88,6,284
1749724953850.156,220182,1749724953831.187,99,9,292
1749724953870.0,220114,1749724953851.062,93,9,286
1749724953889.875,220082,1749724953870.938,89,8,284
1749724953909.719,220050,1749724953890.844,92,7,289
1749724953929.594,220074,1749724953910.656,94,8,287
1749724953949.437,220089,1749724953930.531,94,11,295
1749724953969.344,220141,1749724953950.406,92,9,286
1749724953989.219,220234,1749724953970.25,91,8,287
1749724954009.094,220276,1749724953990.156,96,11,286
1749724954028.969,220362,1749724954010.031,93,14,284
1749724954048.844,220475,1749724954029.906,99,7,282
1749724954068.719,220560,1749724954049.75,111,5,288
1749724954088.563,220675,1749724954069.625,96,11,284
1749724954108.437,220800,1749724954089.5,103,8,283
1749724954128.312,220890,1749724954109.375,95,28,286
1749724954148.219,221025,1749724954129.219,96,12,287
1749724954168.063,221145,1749724954149.125,102,14,284
1749724954187.937,221248,1749724954169.0,103,7,295
1749724954207.844,221340,1749724954188.844,102,7,283
1749724954227.719,221486,1749724954208.75,94,8,281
1749724954247.563,221612,1749724954228.625,97,12,288
1749724954267.437,221738,1749724954248.5,99,8,282
1749724954287.312,221855,1749724954268.344,95,7,284
1749724954307.188,221996,1749724954288.188,88,11,288
1749724954327.0,222129,1749724954308.063,92,12,286
1749724954346.875,222286,1749724954327.969,92,12,287
1749724954366.75,222418,1749724954347.781,92,7,284
1749724954386.625,222594,1749724954367.656,100,7,286
1749724954406.469,222746,1749724954387.531,97,5,288
1749724954426.344,222894,1749724954407.406,94,12,287
1749724954446.219,223043,1749724954427.281,102,8,287
1749724954466.094,223205,1749724954447.125,119,6,287
1749724954485.969,223376,1749724954467.0,104,6,288
1749724954505.812,223552,1749724954486.906,105,6,291
1749724954525.719,223691,1749724954506.719,95,31,279
1749724954545.563,223773,1749724954526.625,107,8,287
1749724954565.438,223704,1749724954546.5,103,7,284
1749724954585.344,223492,1749724954566.375,98,2,303
1749724954605.219,223188,1749724954586.25,97,7,286
1749724954625.063,222841,1749724954606.125,96,8,287
1749724954644.969,222514,1749724954626.0,98,7,287
1749724954664.844,222270,1749724954645.875,92,9,287
1749724954684.719,222065,1749724954665.781,92,9,287
1749724954704.563,221945,1749724954685.719,99,7,279
1749724954724.438,221902,1749724954705.5,91,9,281
1749724954744.312,221859,1749724954725.344,89,12,294
1749724954764.219,221863,1749724954745.219,96,8,288
1749724954784.063,221900,1749724954765.125,103,7,288
1749724954803.906,221950,1749724954785.0,99,-2,281
1749724954823.812,222001,1749724954804.844,103,3,286
1749724954843.781,222030,1749724954824.75,103,11,284
1749724954863.563,222011,1749724954844.688,88,6,283
1749724954883.438,221965,1749724954864.469,96,7,280
1749724954903.312,221904,1749724954884.344,101,4,288
1749724954923.156,221853,1749724954904.219,90,28,288
1749724954943.031,221797,1749724954924.125,92,11,287
1749724954962.9058,221786,1749724954943.969,92,12,286
1749724954982.781,221790,1749724954963.812,95,13,284
1749724955002.625,221801,1749724954983.687,91,11,284
1749724955022.5,221868,1749724955003.531,96,12,288
1749724955042.375,221926,1749724955023.406,103,4,279
1749724955062.25,222013,1749724955043.281,104,4,284
1749724955082.094,222104,1749724955063.156,108,7,286
1749724955101.938,222224,1749724955083.031,92,8,280
1749724955121.844,222330,1749724955102.875,95,4,276
1749724955141.719,222469,1749724955122.75,99,4,284
1749724955161.531,222582,1749724955142.625,95,11,288
1749724955181.5,222714,1749724955162.469,103,9,289
1749724955201.281,222854,1749724955182.406,98,9,287
1749724955221.1558,222997,1749724955202.187,102,10,287
1749724955241.031,223145,1749724955222.062,103,1,283
1749724955260.875,223270,1749724955241.969,96,11,280
1749724955280.781,223422,1749724955261.781,94,12,288
1749724955300.656,223593,1749724955281.687,96,7,289
1749724955320.5,223726,1749724955301.594,89,39,287
1749724955340.375,223852,1749724955321.438,99,11,281
1749724955360.281,224021,1749724955341.281,94,10,287
1749724955380.156,224167,1749724955361.156,96,3,304
1749724955400.0,224289,1749724955381.031,99,7,279
1749724955419.875,224429,1749724955400.969,96,7,280
1749724955439.75,224558,1749724955420.75,104,6,279
1749724955459.625,224696,1749724955440.656,94,7,275
1749724955479.469,224836,1749724955460.562,92,9,288
1749724955499.375,224979,1749724955480.406,92,7,288
1749724955519.25,225116,1749724955500.281,96,6,283
1749724955539.094,225273,1749724955520.156,94,7,284
1749724955558.969,225417,1749724955540.062,95,6,279
1749724955578.938,225487,1749724955559.906,92,6,284
1749724955598.75,225435,1749724955579.844,102,12,279
1749724955618.594,225239,1749724955599.656,99,8,279
1749724955638.5,224974,1749724955619.562,104,7,284
1749724955658.375,224677,1749724955639.375,129,3,291
1749724955678.25,224406,1749724955659.281,97,12,281
1749724955698.094,224172,1749724955679.156,92,8,288
1749724955717.969,224006,1749724955699.031,95,31,288
1749724955737.844,223921,1749724955718.906,89,10,287
1749724955757.75,223894,1749724955738.75,96,9,288
1749724955777.594,223899,1749724955758.625,104,3,303
1749724955797.469,223937,1749724955778.563,95,12,280
1749724955817.344,224013,1749724955798.375,96,9,283
1749724955837.188,224104,1749724955818.25,103,7,287
1749724955857.094,224190,1749724955838.062,94,12,283
1749724955876.906,224244,1749724955858.0,98,6,279
1749724955896.781,224285,1749724955877.813,92,3,288
1749724955916.656,224292,1749724955897.719,103,8,287
1749724955936.5,224260,1749724955917.562,102,10,296
1749724955956.406,224174,1749724955937.437,95,3,283
1749724955976.25,224130,1749724955957.281,108,9,288
1749724955996.094,224070,1749724955977.156,103,11,284
1749724956016.0,224046,1749724955997.031,99,12,275
1749724956035.844,224043,1749724956016.906,102,8,281
1749724956055.719,224075,1749724956036.781,95,3,287
1749724956075.563,224097,1749724956056.625,96,9,287
1749724956095.469,224154,1749724956076.5,96,6,291
1749724956115.312,224183,1749724956096.344,96,8,288
1749724956135.187,224230,1749724956116.25,103,6,288
1749724956155.031,224292,1749724956136.094,92,3,279
1749724956174.906,224323,1749724956155.969,99,0,286
1749724956194.781,224368,1749724956175.781,104,7,288
1749724956214.656,224407,1749724956195.688,99,9,286
1749724956234.5,224460,1749724956215.563,99,6,279
1749724956254.375,224513,1749724956235.406,103,4,288
1749724956274.219,224552,1749724956255.281,103,7,284
1749724956294.094,224585,1749724956275.156,97,7,286
1749724956313.906,224650,1749724956295.0,97,6,288
1749724956333.781,224704,1749724956314.875,103,8,284
1749724956353.656,224795,1749724956334.719,100,8,284
1749724956373.5,224885,1749724956354.531,93,7,283
1749724956393.406,225003,1749724956374.5,104,7,280
1749724956413.219,225102,1749724956394.25,103,3,284
1749724956433.094,225237,1749724956414.125,103,0,279
1749724956453.0,225352,1749724956434.031,116,12,288
1749724956472.844,225468,1749724956453.875,102,6,292
1749724956492.719,225623,1749724956473.781,96,1,282
1749724956512.594,225745,1749724956493.594,100,16,279
1749724956532.469,225877,1749724956513.5,102,-1,280
1749724956552.313,225865,1749724956533.375,99,7,284
1749724956572.188,225693,1749724956553.25,95,8,288
1749724956592.062,225442,1749724956573.094,96,8,280
1749724956611.937,225087,1749724956592.969,96,7,287
1749724956631.781,224729,1749724956612.844,94,11,287
1749724956651.656,224396,1749724956632.719,101,8,280
1749724956671.531,224137,1749724956652.562,97,7,288
1749724956691.375,223959,1749724956672.406,105,12,284
1749724956711.25,223818,1749724956692.313,105,12,282
1749724956731.125,223746,1749724956712.188,99,7,290
1749724956751.0,223710,1749724956732.031,103,8,283
1749724956770.875,223688,1749724956751.906,104,9,279
1749724956790.719,223703,1749724956771.813,96,7,283
1749724956810.594,223713,1749724956791.625,100,7,284
1749724956830.469,223735,1749724956811.5,99,9,288
1749724956850.312,223667,1749724956831.375,88,0,287
1749724956870.219,223568,1749724956851.281,97,12,284
1749724956890.063,223449,1749724956871.094,92,8,279
1749724956909.969,223355,1749724956890.969,103,7,279
1749724956929.812,223213,1749724956910.906,92,7,287
1749724956949.719,223116,1749724956930.75,94,6,289
1749724956969.594,223034,1749724956950.594,100,8,292
1749724956989.5,222992,1749724956970.5,91,8,288
1749724957009.344,222965,1749724956990.375,103,9,284
1749724957029.219,222976,1749724957010.281,92,6,280
1749724957049.094,223004,1749724957030.094,102,8,289
1749724957068.969,223035,1749724957050.031,96,8,287
1749724957088.812,223100,1749724957069.875,99,6,287
1749724957108.687,223197,1749724957089.75,96,8,286
1749724957128.563,223291,1749724957109.625,107,16,279
1749724957148.438,223370,1749724957129.469,103,3,276
1749724957168.312,223512,1749724957149.375,91,3,282
1749724957188.188,223586,1749724957169.25,108,3,282
1749724957208.125,223718,1749724957189.094,97,6,288
1749724957227.937,223840,1749724957209.031,99,12,283
1749724957247.812,223946,1749724957228.906,116,12,287
1749724957267.719,224066,1749724957248.719,102,11,288
1749724957287.594,224173,1749724957268.594,112,0,288
1749724957307.469,224289,1749724957288.531,94,16,287
1749724957327.344,224394,1749724957308.406,108,7,279
1749724957347.25,224492,1749724957328.25,102,7,291
1749724957367.125,224638,1749724957348.125,103,3,291
1749724957386.969,224790,1749724957368.031,91,8,286
1749724957406.844,225060,1749724957387.906,97,7,288
1749724957426.688,225060,1749724957407.75,97,7,288
1749724957486.187,169089,1749724957467.438,100,1,284
1749724957506.062,169088,1749724957487.25,100,1,287
1749724957525.938,168979,1749724957507.125,95,0,291
1749724957545.813,168805,1749724957527.0,99,7,289
1749724957565.687,168584,1749724957546.875,95,1,286
1749724957585.562,168349,1749724957566.781,97,7,259
1749724957605.469,168163,1749724957586.625,100,7,285
1749724957625.281,168045,1749724957606.531,99,7,280
1749724957645.187,167945,1749724957626.344,96,8,291
1749724957665.062,167900,1749724957646.219,100,1,284
1749724957684.906,167876,1749724957666.125,89,6,287
1749724957704.813,167869,1749724957686.0,96,1,280
1749724957724.687,167911,1749724957705.875,94,3,291
1749724957744.562,167943,1749724957725.75,92,0,291
1749724957764.406,167989,1749724957745.625,95,0,286
1749724957784.312,168033,1749724957765.5,88,7,288
1749724957804.156,168010,1749724957785.375,100,6,284
1749724957824.031,167978,1749724957805.219,102,6,288
1749724957843.906,167951,1749724957825.125,94,0,284
1749724957863.75,167868,1749724957845.0,104,0,287
1749724957883.625,167834,1749724957864.813,102,0,278
1749724957903.5,167791,1749724957884.719,89,9,284
1749724957923.344,167765,1749724957904.625,96,6,276
1749724957943.188,167750,1749724957924.437,103,1,279
1749724957963.094,167778,1749724957944.25,105,3,286
1749724957982.937,167780,1749724957964.156,100,0,284
1749724958002.781,167797,1749724957984.0,103,4,276
1749724958022.656,167848,1749724958003.875,103,3,278
1749724958042.5,167870,1749724958023.6868,108,2,283
1749724958062.406,167934,1749724958043.594,94,3,291
1749724958082.313,167980,1749724958063.469,94,0,283
1749724958102.125,168017,1749724958083.312,94,8,271
1749724958122.0,168065,1749724958103.187,95,3,286
1749724958141.875,168128,1749724958123.063,100,1,287
1749724958161.719,168182,1749724958142.938,94,3,296
1749724958181.594,168229,1749724958162.75,99,3,291
1749724958201.437,168273,1749724958182.656,97,7,287
1749724958221.344,168336,1749724958202.5,94,7,287
1749724958241.188,168367,1749724958222.406,89,6,286
1749724958261.031,168414,1749724958242.25,102,6,291
1749724958280.906,168502,1749724958262.094,107,0,284
1749724958300.781,168540,1749724958282.0,103,3,285
1749724958320.625,168594,1749724958301.844,88,3,290
1749724958340.5,168643,1749724958321.687,107,3,283
1749724958360.375,168605,1749724958341.562,96,0,284
1749724958380.219,168476,1749724958361.438,99,7,288
1749724958400.125,168270,1749724958381.313,102,7,283
1749724958420.031,168017,1749724958401.156,103,1,281
1749724958439.875,167761,1749724958421.031,89,20,271
1749724958459.687,167544,1749724958440.906,96,3,289
1749724958479.562,167354,1749724958460.813,94,7,288
1749724958499.438,167219,1749724958480.656,100,7,303
1749724958519.313,167117,1749724958500.531,103,3,290
1749724958539.156,167071,1749724958520.406,103,5,286
1749724958559.031,167046,1749724958540.25,108,4,286
1749724958578.938,167032,1749724958560.0942,95,3,278
1749724958598.781,167050,1749724958580.0,97,6,284
1749724958618.625,167073,1749724958599.812,104,3,283
1749724958638.5,167093,1749724958619.75,99,7,280
1749724958658.375,167063,1749724958639.594,99,3,284
1749724958678.219,167011,1749724958659.437,95,7,281
1749724958698.187,166948,1749724958679.312,97,7,286
1749724958718.0,166893,1749724958699.25,89,7,279
1749724958737.813,166849,1749724958719.0,91,5,277
1749724958757.688,166819,1749724958738.906,95,4,287
1749724958777.531,166766,1749724958758.75,95,2,284
1749724958797.406,166774,1749724958778.625,100,9,284
1749724958817.25,166816,1749724958798.469,94,7,287
1749724958837.125,166830,1749724958818.312,96,8,286
1749724958856.9692,166884,1749724958838.187,92,5,288
1749724958876.812,166916,1749724958858.063,103,7,287
1749724958896.687,166982,1749724958877.875,103,4,279
1749724958916.563,167060,1749724958897.781,100,0,284
1749724958936.375,167117,1749724958917.625,95,0,286
1749724958956.281,167209,1749724958937.469,104,3,286
1749724958976.125,167306,1749724958957.313,100,-5,283
1749724958996.0,167402,1749724958977.188,108,3,283
1749724959015.844,167496,1749724958997.156,94,3,275
1749724959035.75,167569,1749724959016.937,92,1,287
1749724959055.594,167643,1749724959036.781,99,1,283
1749724959075.469,167720,1749724959056.6558,92,7,282
1749724959095.344,167813,1749724959076.531,103,3,287
1749724959115.187,167883,1749724959096.375,102,0,287
1749724959135.062,167971,1749724959116.281,96,1,272
1749724959154.938,168025,1749724959136.094,96,3,287
1749724959174.75,167978,1749724959156.0,110,-2,289
1749724959194.625,167848,1749724959175.812,104,7,290
1749724959214.5,167618,1749724959195.688,103,3,284
1749724959234.344,167322,1749724959215.594,100,-1,271
1749724959254.219,167051,1749724959235.437,107,0,279
1749724959274.063,166804,1749724959255.25,95,1,286
1749724959293.906,166630,1749724959275.156,92,7,287
1749724959313.781,166472,1749724959295.0,94,3,287
1749724959333.594,166399,1749724959314.844,104,2,282
1749724959353.469,166325,1749724959334.656,104,3,284
1749724959373.312,166288,1749724959354.531,105,3,284
1749724959393.187,166299,1749724959374.406,105,3,286
1749724959413.031,166295,1749724959394.25,97,6,284
1749724959432.875,166311,1749724959414.094,92,3,278
1749724959452.75,166301,1749724959433.937,92,3,286
1749724959472.594,166269,1749724959453.813,95,1,284
1749724959492.4368,166211,1749724959473.656,100,3,281
1749724959512.281,166145,1749724959493.531,99,0,284
1749724959532.156,166072,1749724959513.344,95,0,291
1749724959552.031,166008,1749724959533.187,104,0,279
1749724959571.844,165939,1749724959553.094,104,8,287
1749724959591.719,165918,1749724959572.906,103,1,287
1749724959611.563,165909,1749724959592.781,92,3,286
1749724959631.438,165923,1749724959612.625,96,4,288
1749724959651.281,165950,1749724959632.5,98,1,286
1749724959671.125,165974,1749724959652.344,103,6,294
1749724959690.969,166000,1749724959672.281,103,7,284
1749724959710.844,166052,1749724959692.031,100,0,281
1749724959730.656,166097,1749724959711.906,99,3,287
1749724959750.531,166159,1749724959731.75,100,7,287
1749724959770.5,166207,1749724959751.625,102,6,287
1749724959790.313,166269,1749724959771.531,96,0,290
1749724959810.125,166326,1749724959791.312,99,0,281
1749724959830.0,166389,1749724959811.188,93,0,290
1749724959849.844,166457,1749724959831.063,94,1,286
1749724959869.719,166521,1749724959850.906,104,3,286
1749724959889.563,166574,1749724959870.812,97,0,284
1749724959909.437,166636,1749724959890.625,88,7,280
1749724959929.312,166702,1749724959910.5,92,5,284
1749724959949.156,166787,1749724959930.375,105,3,281
1749724959969.031,166846,1749724959950.219,102,0,275
1749724959988.906,166947,1749724959970.094,104,3,280
1749724960008.75,166954,1749724959989.969,91,2,291
1749724960028.625,166894,1749724960009.813,89,3,280
1749724960048.469,166692,1749724960029.687,103,7,287
1749724960068.3442,166440,1749724960049.531,91,1,287
1749724960088.219,166154,1749724960069.438,102,6,279
1749724960108.063,165900,1749724960089.313,92,6,290
1749724960127.938,165641,1749724960109.219,94,3,284
1749724960147.812,165462,1749724960129.0,90,6,286
1749724960167.687,165333,1749724960148.844,101,6,277
1749724960187.531,165242,1749724960168.75,99,0,287
1749724960207.406,165188,1749724960188.625,96,0,285
1749724960227.281,165157,1749724960208.469,92,1,287
1749724960247.125,165155,1749724960228.344,96,6,287
1749724960266.969,165128,1749724960248.188,96,3,287
1749724960286.875,165127,1749724960268.062,91,3,287
1749724960306.719,165110,1749724960287.906,92,8,288
1749724960326.594,165063,1749724960307.781,103,3,290
1749724960346.406,164997,1749724960327.656,96,3,286
1749724960366.313,164926,1749724960347.531,99,3,288
1749724960386.188,164826,1749724960367.375,100,6,288
1749724960406.0618,164762,1749724960387.25,92,3,286
1749724960425.906,164722,1749724960407.156,97,2,284
1749724960445.781,164698,1749724960426.969,103,3,287
1749724960465.625,164701,1749724960446.844,88,3,283
1749724960485.5,164715,1749724960466.719,103,7,291
1749724960505.375,164736,1749724960486.594,94,7,287
1749724960525.219,164788,1749724960506.469,91,5,286
1749724960545.094,164863,1749724960526.281,97,11,282
1749724960564.969,164917,1749724960546.156,102,3,287
1749724960584.781,164989,1749724960566.031,118,3,284
1749724960604.688,165051,1749724960585.906,102,3,284
1749724960624.625,165133,1749724960605.75,92,4,284
1749724960644.406,165207,1749724960625.625,89,24,270
1749724960664.25,165282,1749724960645.469,103,0,287
1749724960684.094,165365,1749724960665.344,102,2,284
1749724960703.969,165465,1749724960685.125,97,0,288
1749724960723.844,165541,1749724960705.031,100,0,291
1749724960743.656,165648,1749724960724.906,99,3,286
1749724960763.531,165723,1749724960744.75,99,3,281
1749724960783.406,165811,1749724960764.594,96,3,286
1749724960803.313,165891,1749724960784.469,94,7,290
1749724960823.094,166003,1749724960804.375,100,2,287
1749724960842.969,166095,1749724960824.219,95,6,283
1749724960862.813,166179,1749724960844.031,94,0,286
1749724960882.688,166257,1749724960863.875,106,3,291
1749724960902.531,166383,1749724960883.781,100,0,279
1749724960922.375,166483,1749724960903.625,103,7,286
1749724960942.281,166571,1749724960923.438,103,5,275
1749724960962.156,166631,1749724960943.3442,93,1,286
1749724960981.9692,166583,1749724960963.219,100,4,287
1749724961001.875,166389,1749724960983.031,103,4,275
1749724961021.844,166160,1749724961002.938,102,3,279
1749724961041.594,165843,1749724961022.812,102,14,280
1749724961061.438,165569,1749724961042.656,92,7,280
1749724961081.281,165337,1749724961062.5,102,7,290
1749724961101.156,165167,1749724961082.344,99,3,288
1749724961121.063,165032,1749724961102.219,98,7,286
1749724961140.875,164947,1749724961122.125,92,3,286
1749724961160.75,164890,1749724961141.937,97,3,290
1749724961180.656,164859,1749724961161.844,104,6,283
1749724961200.5,164865,1749724961181.719,103,7,286
1749724961220.375,164883,1749724961201.562,118,0,286
1749724961240.2192,164881,1749724961221.406,92,1,284
1749724961260.094,164862,1749724961241.281,92,7,287
1749724961279.938,164786,1749724961261.156,94,13,288
1749724961299.813,164746,1749724961281.0618,94,6,284
1749724961319.687,164627,1749724961300.875,103,1,287
1749724961339.562,164564,1749724961320.75,99,3,286
1749724961359.406,164485,1749724961340.625,97,3,284
1749724961379.281,164439,1749724961360.437,94,-4,281
1749724961399.156,164388,1749724961380.344,96,4,286
1749724961419.0,164381,1749724961400.188,97,6,287
1749724961438.844,164391,1749724961420.094,94,7,295
1749724961458.719,164423,1749724961440.0,94,7,290
1749724961478.563,164448,1749724961459.781,96,7,287
1749724961498.469,164497,1749724961479.656,107,3,281
1749724961518.312,164534,1749724961499.5,99,3,286
1749724961538.156,164600,1749724961519.406,103,1,287
1749724961558.031,164668,1749724961539.25,91,3,275
1749724961577.906,164711,1749724961559.094,99,4,286
1749724961597.75,164791,1749724961579.0,95,4,284
1749724961617.625,164855,1749724961598.844,99,3,290
1749724961637.5,164921,1749724961618.687,92,7,290
1749724961657.375,164979,1749724961638.562,95,6,287
1749724961677.25,165044,1749724961658.438,99,3,286
1749724961697.125,165137,1749724961678.313,107,5,290
1749724961716.969,165209,1749724961698.187,92,3,284
1749724961736.875,165288,1749724961718.031,104,1,284
1749724961756.687,165387,1749724961737.938,104,0,282
1749724961776.594,165473,1749724961757.781,96,7,280
1749724961796.469,165577,1749724961777.656,103,5,289
1749724961816.344,165654,1749724961797.531,103,3,284
1749724961836.1868,165767,1749724961817.406,95,0,281
1749724961856.063,165865,1749724961837.281,95,3,278
1749724961875.938,165961,1749724961857.156,92,3,280
1749724961895.812,166079,1749724961877.0,103,3,275
1749724961915.656,166190,1749724961896.875,105,3,282
1749724961935.594,166267,1749724961916.719,104,3,277
1749724961955.406,166243,1749724961936.687,88,3,286
1749724961975.281,166100,1749724961956.5,102,6,281
1749724961995.125,165855,1749724961976.344,91,7,286
1749724962015.031,165557,1749724961996.188,96,1,290
1749724962034.906,165276,1749724962016.094,88,3,284
1749724962054.719,165034,1749724962035.969,89,5,287
1749724962074.625,164843,1749724962055.813,102,7,276
1749724962094.469,164720,1749724962075.688,100,2,284
1749724962114.344,164621,1749724962095.531,99,7,291
1749724962134.187,164589,1749724962115.437,100,7,287
1749724962154.062,164578,1749724962135.313,107,6,287
1749724962173.938,164599,1749724962155.125,102,1,280
1749724962193.813,164621,1749724962175.0,95,7,286
1749724962213.656,164642,1749724962194.875,104,3,282
1749724962233.531,164651,1749724962214.75,92,3,263
1749724962253.406,164598,1749724962234.625,95,0,287
1749724962273.281,164561,1749724962254.469,96,3,290
1749724962293.125,164494,1749724962274.312,105,1,269
1749724962313.0,164419,1749724962294.219,103,0,283
1749724962332.875,164362,1749724962314.094,102,6,284
1749724962352.781,164327,1749724962333.9692,102,7,287
1749724962372.5942,164294,1749724962353.844,103,0,284
1749724962392.469,164310,1749724962373.688,99,0,287
1749724962412.344,164342,1749724962393.531,94,7,284
1749724962432.219,164378,1749724962413.375,91,3,287
1749724962452.063,164433,1749724962433.281,108,0,287
1749724962471.937,164487,1749724962453.125,103,1,278
1749724962491.812,164568,1749724962472.969,99,0,283
1749724962511.688,164615,1749724962492.875,104,6,289
1749724962531.531,164701,1749724962512.75,96,3,287
1749724962551.5,164779,1749724962532.625,95,3,284
1749724962571.281,164843,1749724962552.5,92,16,281
1749724962591.125,164929,1749724962572.344,99,7,280
1749724962611.0,165009,1749724962592.219,102,3,284
1749724962630.8442,165101,1749724962612.062,92,7,296
1749724962650.719,165206,1749724962631.906,96,6,291
1749724962670.563,165288,1749724962651.781,93,5,288
1749724962690.406,165368,1749724962671.719,96,1,284
1749724962710.281,165462,1749724962691.469,100,0,291
1749724962730.125,165557,1749724962711.375,99,1,284
1749724962750.0,165657,1749724962731.188,95,3,286
1749724962769.906,165729,1749724962751.094,100,0,286
1749724962789.75,165849,1749724962771.0,94,3,286
1749724962809.625,165952,1749724962790.813,95,6,284
1749724962829.469,166060,1749724962810.688,102,6,283
1749724962849.344,166163,1749724962830.562,109,3,286
1749724962869.188,166267,1749724962850.406,95,0,284
1749724962889.219,166376,1749724962870.281,99,6,287
1749724962908.937,166489,1749724962890.156,95,-1,284
1749724962928.813,166615,1749724962910.031,99,1,282
1749724962948.688,166740,1749724962929.875,99,3,284
1749724962968.5618,166852,1749724962949.75,103,0,302
1749724962988.437,166923,1749724962969.594,99,0,284
1749724963008.281,166877,1749724962989.531,103,3,287
1749724963028.188,166731,1749724963009.344,102,3,283
1749724963048.062,166460,1749724963029.219,89,0,281
1749724963067.875,166173,1749724963049.125,88,1,287
1749724963087.781,165872,1749724963068.969,103,3,287
1749724963107.656,165583,1749724963088.875,93,3,286
1749724963127.562,165356,1749724963108.719,103,3,272
1749724963147.375,165207,1749724963128.594,92,3,280
1749724963167.344,165102,1749724963148.469,102,7,284
1749724963187.156,165087,1749724963168.406,92,3,278
1749724963207.031,165222,1749724963188.219,105,3,280
1749724963226.875,166278,1749724963208.094,99,-7,266
1749724963246.75,167435,1749724963227.937,111,-17,281
1749724963266.625,168633,1749724963247.781,364,4,380
1749724963286.469,167228,1749724963267.719,771,47,585
1749724963306.344,165687,1749724963287.563,590,39,190
1749724963326.25,164285,1749724963307.437,307,-65,143
1749724963346.125,163989,1749724963327.312,-391,-170,394
1749724963365.937,163812,1749724963347.156,-767,-93,551
1749724963385.812,162759,1749724963367.125,-277,135,463
1749724963405.656,162893,1749724963386.875,132,187,274
1749724963425.563,163215,1749724963406.719,167,137,163
1749724963445.375,163329,1749724963426.625,204,88,127
1749724963465.312,163515,1749724963446.469,223,113,191
1749724963485.125,163717,1749724963466.375,274,95,240
1749724963505.0,163839,1749724963486.156,359,57,249
1749724963524.844,163998,1749724963506.062,332,15,248
1749724963544.687,163981,1749724963525.938,288,-8,215
1749724963564.563,163835,1749724963545.75,249,-13,195
1749724963584.438,163601,1749724963565.625,155,0,191
1749724963604.281,163280,1749724963585.5,115,-9,220
1749724963624.156,163613,1749724963605.344,143,1,291
1749724963644.031,164006,1749724963625.219,176,24,364
1749724963663.875,164310,1749724963645.094,159,31,377
1749724963683.719,164647,1749724963664.969,112,19,312
1749724963703.594,164921,1749724963684.844,103,19,239
1749724963723.469,165177,1749724963704.656,113,25,246
1749724963743.313,165396,1749724963724.531,131,24,242
1749724963763.156,165747,1749724963744.406,131,15,272
1749724963783.094,166114,1749724963764.25,147,23,280
1749724963802.906,166425,1749724963784.063,126,36,281
1749724963822.781,166869,1749724963804.0,109,31,294
1749724963842.594,167137,1749724963823.812,144,31,322
1749724963862.469,167120,1749724963843.719,167,31,330
1749724963882.344,167101,1749724963863.531,141,39,299
1749724963902.219,167178,1749724963883.375,112,31,275
1749724963922.031,167206,1749724963903.312,120,39,280
1749724963941.906,167240,1749724963923.125,131,31,284
1749724963961.781,167238,1749724963942.969,131,27,283
1749724963981.625,167253,1749724963962.875,141,20,274
1749724964001.5,167273,1749724963982.719,113,22,268
1749724964021.344,167345,1749724964002.594,103,15,263
1749724964041.219,167362,1749724964022.406,103,0,264
1749724964061.062,167257,1749724964042.281,112,0,275
1749724964080.906,167065,1749724964062.125,127,5,271
1749724964100.781,166786,1749724964081.969,123,9,255
1749724964120.625,166572,1749724964101.844,119,25,270
1749724964140.5,166354,1749724964121.719,127,22,280
1749724964160.312,166135,1749724964141.563,147,28,281
1749724964180.219,166017,1749724964161.406,139,31,279
1749724964200.063,165928,1749724964181.281,140,31,281
1749724964219.937,165871,1749724964201.188,139,39,278
1749724964239.781,165876,1749724964221.0,134,43,275
1749724964259.625,165907,1749724964240.875,131,39,271
1749724964279.5,165963,1749724964260.687,127,39,275
1749724964299.406,166055,1749724964280.562,119,31,284
1749724964319.187,166129,1749724964300.469,128,31,279
1749724964339.063,166155,1749724964320.281,131,29,278
1749724964358.969,166139,1749724964340.125,120,27,284
1749724964378.812,166104,1749724964360.031,120,23,284
1749724964398.656,166022,1749724964379.875,115,30,279
1749724964418.5,165926,1749724964399.719,119,23,282
1749724964438.375,165850,1749724964419.562,132,31,266
1749724964458.25,165795,1749724964439.437,129,27,267
1749724964478.062,165744,1749724964459.281,126,32,263
1749724964497.937,165721,1749724964479.156,116,31,271
1749724964517.844,165730,1749724964499.031,119,31,278
1749724964537.688,165734,1749724964518.906,129,31,288
1749724964557.531,165762,1749724964538.875,132,31,283
1749724964577.375,165806,1749724964558.594,120,31,280
1749724964597.25,165845,1749724964578.438,121,31,271
1749724964617.125,165892,1749724964598.344,118,31,276
1749724964637.062,165961,1749724964618.187,115,31,280
1749724964656.875,166002,1749724964638.125,129,30,275
1749724964676.688,166076,1749724964657.875,119,25,272
1749724964696.594,166127,1749724964677.75,121,27,282
1749724964716.375,166190,1749724964697.656,127,22,276
1749724964736.281,166246,1749724964717.469,124,30,275
1749724964756.156,166275,1749724964737.344,120,30,280
1749724964776.0,166319,1749724964757.219,124,31,271
1749724964795.844,166367,1749724964777.062,120,31,278
1749724964815.687,166419,1749724964796.906,131,31,280
1749724964835.562,166487,1749724964816.75,131,31,271
1749724964855.438,166540,1749724964836.625,132,31,277
1749724964875.25,166610,1749724964856.531,119,28,276
1749724964895.125,166712,1749724964876.312,120,28,280
1749724964915.0,166781,1749724964896.188,121,25,278
1749724964934.844,166872,1749724964916.063,119,30,283
1749724964954.688,166910,1749724964935.906,139,31,279
1749724964974.562,166909,1749724964955.75,120,31,275
1749724964994.437,166777,1749724964975.656,121,31,278
1749724965014.281,166535,1749724964995.469,119,39,275
1749724965034.125,166252,1749724965015.375,120,31,277
1749724965054.0,165906,1749724965035.25,135,31,275
1749724965073.875,165638,1749724965055.063,118,31,275
1749724965093.781,165417,1749724965074.938,118,30,279
1749724965113.531,165251,1749724965094.812,111,48,268
1749724965133.406,165153,1749724965114.594,119,31,280
1749724965153.281,165066,1749724965134.5,121,29,279
1749724965173.125,165026,1749724965154.344,121,30,281
1749724965193.0,165013,1749724965174.2808,124,30,275
1749724965212.844,165028,1749724965194.031,120,31,281
1749724965232.719,165026,1749724965213.906,131,31,271
1749724965252.594,165020,1749724965233.781,131,31,271
1749724965272.406,164998,1749724965253.656,127,28,275
1749724965292.281,164940,1749724965273.469,135,23,275
1749724965312.156,164859,1749724965293.312,126,27,279
1749724965332.031,164785,1749724965313.219,131,28,280
1749724965351.844,164688,1749724965333.063,120,25,282
1749724965371.719,164621,1749724965352.906,118,31,280
1749724965391.625,164552,1749724965372.812,112,28,277
1749724965411.437,164513,1749724965392.719,118,27,269
1749724965431.312,164526,1749724965412.531,120,27,279
1749724965451.188,164503,1749724965432.375,120,31,271
1749724965471.063,164518,1749724965452.25,118,30,279
1749724965490.937,164549,1749724965472.125,120,31,275
1749724965510.781,164586,1749724965492.0,125,32,271
1749724965530.656,164616,1749724965511.844,124,28,279
1749724965550.531,164678,1749724965531.719,132,24,280
1749724965570.375,164711,1749724965551.594,120,31,271
1749724965590.25,164765,1749724965571.469,121,31,284
1749724965610.125,164814,1749724965591.3442,131,24,275
1749724965630.031,164865,1749724965611.187,120,31,278
1749724965649.875,164933,1749724965631.094,118,30,274
1749724965669.75,164963,1749724965650.969,127,25,280
1749724965689.656,165029,1749724965670.844,120,27,275
1749724965709.531,165078,1749724965690.719,126,30,275
1749724965729.344,165133,1749724965710.594,124,30,278
1749724965749.25,165227,1749724965730.438,123,31,275
1749724965769.125,165276,1749724965750.313,119,29,280
1749724965789.0,165338,1749724965770.187,137,31,276
1749724965808.844,165412,1749724965790.031,124,29,280
1749724965828.719,165516,1749724965809.875,123,25,275
1749724965848.594,165580,1749724965829.75,126,31,271
1749724965868.469,165671,1749724965849.656,127,28,280
1749724965888.375,165752,1749724965869.531,116,25,279
1749724965908.187,165808,1749724965889.375,120,32,275
1749724965928.063,165750,1749724965909.25,135,31,276
1749724965947.938,165585,1749724965929.156,134,31,278
1749724965967.781,165285,1749724965949.0,120,31,272
1749724965987.687,164936,1749724965968.875,120,30,278
1749724966007.5632,164570,1749724965988.75,127,27,280
1749724966027.406,164267,1749724966008.625,127,30,275
1749724966047.281,164002,1749724966028.5,127,25,276
1749724966067.156,163829,1749724966048.344,120,31,275
1749724966087.063,163681,1749724966068.188,127,31,283
1749724966106.906,163592,1749724966088.125,124,31,279
1749724966126.75,163527,1749724966108.0,134,31,278
1749724966146.656,163496,1749724966127.813,127,31,283
1749724966166.531,163478,1749724966147.719,121,31,282
1749724966186.375,163770,1749724966167.594,119,30,284
1749724966206.281,165385,1749724966187.437,127,39,310
1749724966226.125,166044,1749724966207.344,246,89,371
1749724966246.031,165779,1749724966227.188,708,87,451
1749724966265.875,167370,1749724966247.062,715,-25,223
1749724966285.75,164196,1749724966266.937,398,-159,78
1749724966305.625,164205,1749724966286.813,72,-152,414
1749724966325.5,163767,1749724966306.688,-145,151,606
1749724966345.344,163533,1749724966326.594,-530,180,403
1749724966365.2192,164814,1749724966346.406,-327,246,256
1749724966385.094,165864,1749724966366.281,454,193,284
1749724966404.938,164690,1749724966386.125,468,25,213
1749724966424.844,164648,1749724966406.031,147,31,291
1749724966444.719,164715,1749724966425.906,268,15,305
1749724966464.562,164241,1749724966445.781,481,-29,247
1749724966484.438,163775,1749724966465.625,420,-37,159
1749724966504.313,163473,1749724966485.531,276,-7,176
1749724966524.187,163366,1749724966505.375,195,15,227
1749724966544.031,163333,1749724966525.25,180,6,274
1749724966563.906,163148,1749724966545.094,188,23,313
1749724966583.781,162946,1749724966565.0,188,39,294
1749724966603.656,162774,1749724966584.875,127,47,249
1749724966623.562,162693,1749724966604.688,115,37,221
1749724966643.406,162618,1749724966624.625,123,24,211
1749724966663.25,162565,1749724966644.469,140,32,220
1749724966683.25,162613,1749724966664.344,147,41,252
1749724966703.0,162796,1749724966684.219,125,44,269
1749724966722.969,163355,1749724966704.063,127,31,286
1749724966742.719,164281,1749724966723.937,147,35,285
1749724966762.594,165249,1749724966743.781,164,27,320
1749724966782.469,165889,1749724966763.688,166,23,327
1749724966802.313,166141,1749724966783.531,167,19,318
1749724966822.188,166181,1749724966803.437,126,22,304
1749724966842.031,166190,1749724966823.25,112,27,281
1749724966861.906,166177,1749724966843.094,96,31,266
1749724966881.75,166108,1749724966863.0,104,28,268
1749724966901.656,166119,1749724966882.812,109,26,271
1749724966921.469,166058,1749724966902.719,102,26,287
1749724966941.344,165811,1749724966922.531,105,23,296
1749724966961.1868,165469,1749724966942.375,112,15,286
1749724966981.031,165029,1749724966962.25,112,0,284
1749724967000.906,164606,1749724966982.094,123,-5,271
1749724967020.781,164201,1749724967001.969,115,0,271
1749724967040.594,163859,1749724967021.844,103,8,263
1749724967060.469,163592,1749724967041.656,103,15,247
1749724967080.344,163422,1749724967061.562,110,19,254
1749724967100.219,163308,1749724967081.437,108,17,255
1749724967120.062,163248,1749724967101.281,110,31,279
1749724967139.937,163204,1749724967121.125,121,31,283
1749724967159.813,163188,1749724967140.969,120,35,280
1749724967179.688,163186,1749724967160.844,124,43,287
1749724967199.531,163173,1749724967180.75,115,43,304
1749724967219.406,163145,1749724967200.563,121,41,289
1749724967239.25,163028,1749724967220.469,116,43,296
1749724967259.094,162929,1749724967240.344,111,43,291
1749724967279.0,162797,1749724967260.187,120,43,287
1749724967298.875,162660,1749724967280.063,115,44,275
1749724967318.75,162564,1749724967299.906,107,45,282
1749724967338.563,162476,1749724967319.812,116,43,284
1749724967358.437,162401,1749724967339.688,105,41,284
1749724967378.312,162358,1749724967359.531,112,37,286
1749724967398.1882,162311,1749724967379.375,113,39,281
1749724967418.031,162309,1749724967399.25,111,31,283
1749724967437.875,162298,1749724967419.125,116,40,286
1749724967457.75,162310,1749724967438.969,107,28,279
1749724967477.625,162298,1749724967458.813,115,29,278
1749724967497.469,162311,1749724967478.687,103,31,296
1749724967517.344,162337,1749724967498.594,107,35,284
1749724967537.187,162344,1749724967518.375,108,35,288
1749724967557.031,162353,1749724967538.313,115,37,284
1749724967576.906,162364,1749724967558.094,109,39,287
1749724967596.719,162367,1749724967577.969,113,39,287
1749724967616.625,162356,1749724967597.75,115,35,277
1749724967636.531,162355,1749724967617.688,108,39,291
1749724967656.344,162349,1749724967637.594,112,39,280
1749724967676.219,162318,1749724967657.437,118,31,284
1749724967696.094,162310,1749724967677.281,108,31,287
1749724967715.969,162297,1749724967697.188,131,31,287
1749724967735.813,162294,1749724967717.031,115,41,285
1749724967755.781,162252,1749724967736.875,119,31,286
1749724967775.531,162239,1749724967756.719,103,35,268
1749724967795.437,162231,1749724967776.625,102,31,290
1749724967815.25,162224,1749724967796.5,112,31,279
1749724967835.125,162181,1749724967816.344,105,27,300
1749724967855.0,162017,1749724967836.1868,110,37,288
1749724967874.875,161749,1749724967856.063,119,31,279
1749724967894.719,161374,1749724967875.938,103,31,275
1749724967914.594,160963,1749724967895.812,112,30,275
1749724967934.469,160573,1749724967915.625,118,31,269
1749724967954.344,160213,1749724967935.531,100,29,283
1749724967974.188,159928,1749724967955.438,103,27,283
1749724967994.063,159715,1749724967975.281,108,31,279
1749724968013.969,159555,1749724967995.156,111,31,286
1749724968033.937,159432,1749724968015.031,116,29,286
1749724968053.75,159362,1749724968035.0,113,31,271
1749724968073.563,159292,1749724968054.75,108,31,279
1749724968093.437,159250,1749724968074.625,115,31,286
1749724968113.281,159239,1749724968094.5,111,25,279
1749724968133.156,159225,1749724968114.344,116,31,281
1749724968153.031,159220,1749724968134.219,108,31,289
1749724968172.906,159191,1749724968154.094,116,31,284
1749724968192.75,159147,1749724968173.969,115,31,284
1749724968212.625,159097,1749724968193.844,112,35,284
1749724968232.5,159046,1749724968213.656,108,32,271
1749724968252.344,159003,1749724968233.562,112,31,286
1749724968272.187,158963,1749724968253.406,112,31,286
1749724968292.062,158955,1749724968273.281,110,37,288
1749724968311.938,158955,1749724968293.125,110,38,283
1749724968331.813,158993,1749724968313.031,112,31,287
1749724968351.656,159032,1749724968332.906,116,31,283
1749724968371.562,159088,1749724968352.75,119,31,284
1749724968391.406,159138,1749724968372.625,102,31,287
1749724968411.313,159204,1749724968392.5,108,36,284
1749724968431.125,159281,1749724968412.375,112,31,285
1749724968451.0,159357,1749724968432.219,113,31,286
1749724968470.906,159422,1749724968452.063,103,31,273
1749724968490.75,159508,1749724968471.969,111,31,280
1749724968510.594,159575,1749724968491.812,120,38,282
1749724968530.469,159663,1749724968511.688,111,31,283
1749724968550.344,159775,1749724968531.563,111,31,280
1749724968570.25,159846,1749724968551.406,118,32,275
1749724968590.062,159932,1749724968571.312,114,31,288
1749724968609.969,160057,1749724968591.125,112,39,283
1749724968629.844,160170,1749724968611.031,112,31,271
1749724968649.719,160285,1749724968630.906,120,31,279
1749724968669.562,160416,1749724968650.812,119,31,278
1749724968689.469,160529,1749724968670.625,118,27,287
1749724968709.344,160684,1749724968690.531,108,31,282
1749724968729.188,160812,1749724968710.406,104,31,282
1749724968749.062,160950,1749724968730.313,120,31,289
1749724968768.937,161078,1749724968750.125,113,31,281
1749724968788.781,161217,1749724968770.0,113,31,287
1749724968808.625,161349,1749724968789.875,113,31,284
1749724968828.531,161508,1749724968809.719,116,31,278
1749724968848.344,161636,1749724968829.594,115,31,280
1749724968868.25,161676,1749724968849.406,116,31,281
1749724968888.094,161600,1749724968869.281,118,31,269
1749724968907.938,161405,1749724968889.187,118,31,286
1749724968927.844,161153,1749724968909.031,104,31,289
1749724968947.687,160875,1749724968928.906,103,31,280
1749724968967.531,160615,1749724968948.75,113,40,272
1749724968987.406,160404,1749724968968.625,115,31,283
1749724969007.25,160278,1749724968988.437,108,31,271
1749724969027.125,160197,1749724969008.313,105,31,287
1749724969046.969,160153,1749724969028.188,108,39,287
1749724969066.813,160137,1749724969048.094,110,38,287
1749724969086.687,160156,1749724969068.031,103,35,286
1749724969106.562,160200,1749724969087.781,112,38,280
1749724969126.375,160262,1749724969107.625,103,31,287
1749724969146.281,160307,1749724969127.5,110,31,289
1749724969166.125,160342,1749724969147.312,112,31,284
1749724969186.062,160360,1749724969167.188,112,31,279
1749724969205.844,160344,1749724969187.063,103,31,287
1749724969225.719,160306,1749724969206.906,115,31,279
1749724969245.563,160259,1749724969226.781,110,30,276
1749724969265.406,160243,1749724969246.625,108,31,280
1749724969285.219,160227,1749724969266.469,105,35,283
1749724969305.094,160223,1749724969286.375,108,31,275
1749724969324.969,160245,1749724969306.156,108,31,279
1749724969344.812,160280,1749724969326.031,113,39,277
1749724969364.625,160330,1749724969345.844,115,34,280
1749724969384.5,160393,1749724969365.75,108,31,286
1749724969404.344,160467,1749724969385.594,111,31,283
1749724969424.219,160553,1749724969405.406,108,31,281
1749724969444.062,160632,1749724969425.313,116,35,284
1749724969463.906,160733,1749724969445.156,115,31,286
1749724969483.781,160813,1749724969464.938,119,31,279
1749724969503.688,160896,1749724969484.875,108,31,284
1749724969523.469,160984,1749724969504.719,112,31,283
1749724969543.375,161062,1749724969524.594,119,34,284
1749724969563.219,161150,1749724969544.438,110,31,287
1749724969583.094,161210,1749724969564.281,111,35,278
1749724969602.937,161309,1749724969584.125,115,38,270
1749724969622.781,161372,1749724969604.063,112,31,278
1749724969642.656,161461,1749724969623.844,111,34,276
1749724969662.531,161529,1749724969643.75,119,31,276
1749724969682.344,161634,1749724969663.562,112,35,281
1749724969702.219,161735,1749724969683.438,108,31,284
1749724969722.094,161802,1749724969703.3132,105,31,284
1749724969741.969,161787,1749724969723.156,108,31,283
1749724969761.813,161641,1749724969743.031,108,31,288
1749724969781.656,161389,1749724969762.906,118,31,280
1749724969801.531,161084,1749724969782.719,115,31,290
1749724969821.375,160783,1749724969802.594,119,31,285
1749724969841.219,160516,1749724969822.469,115,31,281
1749724969861.063,160313,1749724969842.312,115,29,282
1749724969880.937,160166,1749724969862.125,110,31,280
1749724969900.812,160080,1749724969882.0,105,31,286
1749724969920.625,160019,1749724969901.875,110,39,283
1749724969940.5,160013,1749724969921.75,103,38,286
1749724969960.344,160018,1749724969941.562,104,31,284
1749724969980.219,160074,1749724969961.375,111,39,279
1749724970000.031,160129,1749724969981.281,110,31,286
1749724970019.875,160172,1749724970001.094,112,31,283
1749724970039.75,160189,1749724970020.969,105,31,297
1749724970059.625,160198,1749724970040.781,108,31,280
1749724970079.437,160179,1749724970060.656,108,31,286
1749724970099.281,160128,1749724970080.5308,111,31,283
1749724970119.1558,160116,1749724970100.312,108,31,279
1749724970139.0,160081,1749724970120.219,110,31,280
1749724970158.844,160076,1749724970140.031,108,31,287
1749724970178.688,160081,1749724970159.938,116,31,287
1749724970198.531,160101,1749724970179.75,112,31,280
1749724970218.406,160158,1749724970199.594,108,29,281
1749724970238.281,160198,1749724970219.469,117,31,269
1749724970258.094,160278,1749724970239.344,108,30,278
1749724970277.969,160355,1749724970259.156,108,35,274
1749724970297.813,160458,1749724970279.031,115,31,284
1749724970317.687,160534,1749724970298.906,115,36,290
1749724970337.531,160633,1749724970318.719,106,31,291
1749724970357.375,160731,1749724970338.625,115,31,284
1749724970377.25,160831,1749724970358.437,107,31,270
1749724970397.125,160929,1749724970378.312,108,31,282
1749724970416.937,161018,1749724970398.1882,104,31,283
1749724970436.812,161131,1749724970418.0,118,31,271
1749724970456.688,161217,1749724970437.844,116,33,275
1749724970476.531,161301,1749724970457.75,116,31,285
1749724970496.375,161398,1749724970477.625,112,36,284
1749724970516.25,161495,1749724970497.438,110,31,278
1749724970536.063,161590,1749724970517.313,105,31,286
1749724970555.938,161696,1749724970537.125,99,31,286
1749724970575.75,161784,1749724970557.0,118,31,281
1749724970595.625,161786,1749724970576.813,108,31,278
1749724970615.5,161680,1749724970596.688,116,31,267
1749724970635.344,161453,1749724970616.562,120,31,282
1749724970655.156,161121,1749724970636.406,112,31,279
1749724970675.031,160731,1749724970656.25,108,37,274
1749724970694.937,160403,1749724970676.094,112,31,284
1749724970714.75,160151,1749724970695.938,115,40,275
1749724970734.594,159929,1749724970715.812,109,31,282
1749724970754.437,159773,1749724970735.656,104,31,279
1749724970774.344,159687,1749724970755.531,107,31,296
1749724970794.188,159646,1749724970775.4058,110,31,286
1749724970814.031,159633,1749724970795.25,110,31,284
1749724970833.875,159637,1749724970815.187,105,31,283
1749724970853.781,159660,1749724970834.938,105,39,287
1749724970873.594,159693,1749724970854.813,110,35,288
1749724970893.469,159687,1749724970874.687,118,31,287
1749724970913.344,159649,1749724970894.531,118,31,284
1749724970933.219,159629,1749724970914.406,118,31,283
1749724970953.094,159568,1749724970934.25,110,31,281
1749724970972.938,159518,1749724970954.156,112,31,286
1749724970992.813,159463,1749724970974.0,104,31,286
1749724971012.719,159452,1749724970993.875,107,31,280
1749724971032.656,159450,1749724971013.781,123,28,281
1749724971052.406,159440,1749724971033.6558,107,48,278
1749724971072.313,159457,1749724971053.469,103,31,287
1749724971092.187,159517,1749724971073.375,108,31,284
1749724971112.031,159574,1749724971093.25,112,31,285
1749724971131.906,159646,1749724971113.187,113,36,286
1749724971151.75,159728,1749724971132.969,108,31,287
1749724971171.625,159809,1749724971152.844,112,31,279
1749724971191.5,159898,1749724971172.688,107,31,282
1749724971211.344,159986,1749724971192.563,112,31,283
1749724971231.219,160098,1749724971212.406,106,31,287
1749724971251.094,160191,1749724971232.281,115,31,280
1749724971270.937,160304,1749724971252.156,108,30,280
1749724971290.813,160398,1749724971272.031,99,31,284
1749724971310.656,160474,1749724971291.875,108,31,280
1749724971330.5308,160554,1749724971311.719,115,36,280
1749724971350.375,160658,1749724971331.594,120,36,278
1749724971370.25,160748,1749724971351.469,107,31,275
1749724971390.125,160849,1749724971371.312,128,27,287
1749724971409.969,160949,1749724971391.187,119,31,289
1749724971429.812,161052,1749724971411.031,115,31,283
1749724971449.687,161151,1749724971430.875,119,35,276
1749724971469.563,161246,1749724971450.781,106,31,278
1749724971489.438,161301,1749724971470.656,112,31,276
1749724971509.281,161211,1749724971490.5,115,31,271
1749724971529.156,160967,1749724971510.375,112,31,279
1749724971549.0,160619,1749724971530.219,118,31,275
1749724971568.875,160255,1749724971550.062,115,31,281
1749724971588.719,159892,1749724971569.969,112,37,278
1749724971608.562,159592,1749724971589.844,110,31,286
1749724971628.469,159371,1749724971609.625,112,31,287
1749724971648.313,159226,1749724971629.531,116,35,280
1749724971668.156,159133,1749724971649.406,115,31,288
1749724971688.062,159101,1749724971669.25,115,41,279
1749724971707.969,159100,1749724971689.094,116,31,282
1749724971727.781,159114,1749724971709.0,127,28,277
1749724971747.719,159184,1749724971728.812,119,32,280
1749724971767.531,159226,1749724971748.75,114,33,284
1749724971787.375,159245,1749724971768.563,115,48,285
1749724971807.25,159255,1749724971788.437,108,31,278
1749724971827.094,159237,1749724971808.312,103,30,287
1749724971846.969,159197,1749724971828.156,108,31,273
1749724971866.844,159157,1749724971848.031,104,31,287
1749724971886.688,159114,1749724971867.906,112,31,287
1749724971906.531,159092,1749724971887.75,112,31,283
1749724971926.406,159083,1749724971907.625,120,35,280
1749724971946.25,159106,1749724971927.469,107,35,285
1749724971966.219,159157,1749724971947.313,110,35,283
1749724971986.0,159208,1749724971967.344,115,35,282
1749724972005.8442,159279,1749724971987.062,110,31,284
1749724972025.719,159357,1749724972006.938,108,35,283
1749724972045.688,159453,1749724972026.781,118,31,282
1749724972065.5,159543,1749724972046.75,113,37,278
1749724972085.281,159654,1749724972066.5,108,31,280
1749724972105.187,159746,1749724972086.375,110,35,279
1749724972125.0,159826,1749724972106.25,103,31,275
1749724972144.875,159929,1749724972126.094,115,31,280
1749724972164.719,160031,1749724972145.937,103,31,287
1749724972184.594,160111,1749724972165.813,106,27,279
1749724972204.437,160205,1749724972185.656,115,37,280
1749724972224.313,160299,1749724972205.5308,118,35,288
1749724972244.188,160389,1749724972225.375,115,31,259
1749724972264.062,160478,1749724972245.219,115,31,286
1749724972283.906,160571,1749724972265.156,113,31,284
1749724972303.813,160656,1749724972285.0,108,38,280
1749724972323.688,160760,1749724972304.875,109,38,280
1749724972343.5618,160841,1749724972324.75,116,31,283
1749724972363.406,160955,1749724972344.719,117,31,281
1749724972383.313,161047,1749724972364.5,116,31,283
1749724972403.188,161161,1749724972384.375,112,31,286
1749724972423.062,161217,1749724972404.25,116,38,281
1749724972442.906,161153,1749724972424.125,108,35,282
1749724972462.781,160959,1749724972444.0,104,31,286
1749724972482.656,160673,1749724972463.812,115,30,283
1749724972502.531,160328,1749724972483.719,111,31,280
1749724972522.375,159977,1749724972503.594,115,31,278
1749724972542.25,159669,1749724972523.438,115,31,282
1749724972562.125,159458,1749724972543.344,109,31,284
1749724972582.0,159300,1749724972563.219,111,33,280
1749724972601.875,159203,1749724972583.063,118,35,275
1749724972621.719,159156,1749724972602.937,105,31,282
1749724972641.594,159152,1749724972622.781,107,31,279
1749724972661.437,159182,1749724972642.656,110,31,287
1749724972681.312,159234,1749724972662.531,116,31,287
1749724972701.219,159294,1749724972682.375,119,31,284
1749724972721.063,159313,1749724972702.281,104,31,286
1749724972740.937,159290,1749724972722.125,119,31,284
1749724972760.812,159269,1749724972742.063,112,31,284
1749724972780.688,159187,1749724972761.875,113,31,279
1749724972800.563,159126,1749724972781.75,118,31,281
1749724972820.406,159047,1749724972801.594,118,29,275
1749724972840.281,158985,1749724972821.469,112,31,283
1749724972860.156,158947,1749724972841.3442,112,31,287
1749724972880.031,158938,1749724972861.219,115,30,278
1749724972899.875,158947,1749724972881.094,107,28,291
1749724972919.719,158925,1749724972900.969,108,35,295
1749724972939.594,158893,1749724972920.781,110,38,302
1749724972959.563,158758,1749724972940.656,96,31,328
1749724972979.312,158564,1749724972960.531,83,42,326
1749724972999.187,158335,1749724972980.406,73,31,336
1749724973019.063,158131,1749724973000.25,88,46,344
1749724973038.938,157996,1749724973020.094,103,39,334
1749724973058.781,157878,1749724973040.0,120,23,312
1749724973078.625,157730,1749724973059.875,106,21,287
1749724973098.5,157542,1749724973079.781,92,27,268
1749724973118.375,157209,1749724973099.562,96,29,251
1749724973138.188,156900,1749724973119.437,102,15,243
1749724973158.062,156605,1749724973139.313,108,15,243
1749724973178.0,156350,1749724973159.156,112,7,240
1749724973197.844,156156,1749724973179.062,99,7,231
1749724973217.656,156156,1749724973198.906,94,9,236
1749724973237.562,156387,1749724973218.75,115,7,238
1749724973257.406,156809,1749724973238.625,151,-9,247
1749724973277.281,157192,1749724973258.469,152,-9,251
1749724973297.25,157406,1749724973278.344,159,-5,248
1749724973316.969,157486,1749724973298.187,155,20,227
1749724973336.875,157358,1749724973318.063,152,19,224
1749724973356.719,157028,1749724973337.9058,147,9,231
1749724973376.563,156686,1749724973357.75,152,0,239
1749724973396.437,156207,1749724973377.625,209,-13,283
1749724973416.312,155528,1749724973397.5,254,7,290
1749724973436.188,154960,1749724973417.406,199,-15,302
1749724973456.031,154725,1749724973437.219,172,-97,337
1749724973475.937,154413,1749724973457.125,203,-98,276
1749724973495.75,153953,1749724973477.0,168,25,219
1749724973515.625,153527,1749724973496.813,140,39,213
1749724973535.469,153116,1749724973516.75,136,-17,216
1749724973555.344,152645,1749724973536.531,140,-17,279
1749724973575.219,152708,1749724973556.406,145,31,355
1749724973595.062,153295,1749724973576.313,161,25,273
1749724973614.938,154124,1749724973596.1558,156,40,239
1749724973634.813,154219,1749724973616.0,152,55,255
1749724973654.687,151714,1749724973635.844,160,54,239
1749724973674.531,148344,1749724973655.75,131,50,232
1749724973694.375,145516,1749724973675.625,87,73,348
1749724973714.25,145532,1749724973695.437,108,64,399
1749724973734.094,147373,1749724973715.312,163,39,298
1749724973753.937,149252,1749724973735.188,190,31,231
1749724973773.781,151126,1749724973755.031,199,128,240
1749724973793.656,152720,1749724973774.875,150,199,204
1749724973813.531,154159,1749724973794.719,109,228,194
1749724973833.344,155337,1749724973814.656,80,223,206
1749724973853.219,156171,1749724973834.469,91,188,215
1749724973873.063,156754,1749724973854.281,169,119,207
1749724973892.938,157389,1749724973874.156,231,79,220
1749724973912.844,158139,1749724973894.0,192,91,208
1749724973932.656,158815,1749724973913.938,142,158,153
1749724973952.5,159600,1749724973933.688,96,199,97
1749724973972.375,160510,1749724973953.562,106,239,74
1749724973992.188,161532,1749724973973.437,176,283,69
1749724974012.094,162510,1749724973993.281,195,315,58
1749724974031.938,163443,1749724974013.125,179,285,35
1749724974051.813,164301,1749724974033.0,144,223,54
1749724974071.656,165056,1749724974052.875,147,207,86
1749724974091.5,165552,1749724974072.75,150,206,64
1749724974111.406,165825,1749724974092.563,131,204,27
1749724974131.281,165751,1749724974112.469,75,220,60
1749724974151.094,165551,1749724974132.312,51,217,63
1749724974170.969,165139,1749724974152.188,4,219,32
1749724974190.844,164862,1749724974172.031,51,271,63
1749724974210.719,164716,1749724974191.906,120,327,95
1749724974230.563,164645,1749724974211.812,77,311,54
1749724974250.437,164443,1749724974231.625,14,311,103
1749724974270.281,164456,1749724974251.5,-4,399,167
1749724974290.188,164685,1749724974271.375,120,435,235
1749724974310.0,164935,1749724974291.25,216,411,233
1749724974329.875,164398,1749724974311.094,255,349,135
1749724974349.75,164147,1749724974330.938,150,326,37
1749724974369.625,164139,1749724974350.844,-79,326,31
1749724974389.469,163711,1749724974370.656,-164,287,30
1749724974409.312,163201,1749724974390.531,-121,227,46
1749724974429.25,163056,1749724974410.375,-71,193,82
1749724974449.094,163158,1749724974430.281,-47,198,96
1749724974468.906,163381,1749724974450.125,-5,203,95
1749724974488.781,163700,1749724974470.0,88,195,67
1749724974508.687,164258,1749724974489.875,147,191,96
1749724974528.531,164590,1749724974509.75,88,198,135
1749724974548.375,164696,1749724974529.625,47,210,170
1749724974568.25,164961,1749724974549.5,76,219,214
1749724974588.125,165422,1749724974569.313,108,231,230
1749724974608.0,166059,1749724974589.188,121,239,207
1749724974627.844,166791,1749724974609.062,115,222,194
1749724974647.719,167425,1749724974628.906,79,201,190
1749724974667.594,167769,1749724974648.781,33,174,188
1749724974687.469,168003,1749724974668.688,30,159,217
1749724974707.313,168344,1749724974688.531,64,131,219
1749724974727.188,168852,1749724974708.375,102,121,202
1749724974747.031,169412,1749724974728.25,67,123,161
1749724974766.969,170059,1749724974748.125,51,123,143
1749724974786.75,170784,1749724974767.969,71,144,127
1749724974806.625,171559,1749724974787.812,75,131,130
1749724974826.5,172426,1749724974807.687,77,123,134
1749724974846.344,173319,1749724974827.563,75,127,151
1749724974866.219,174230,1749724974847.5,75,129,133
1749724974886.094,175074,1749724974867.281,88,128,151
1749724974905.969,175849,1749724974887.156,99,135,159
1749724974925.812,176490,1749724974907.031,105,143,190
1749724974945.688,176939,1749724974926.906,148,147,240
1749724974965.563,177381,1749724974946.719,152,141,263
1749724974985.437,177786,1749724974966.625,143,131,283
1749724975005.25,178160,1749724974986.469,121,115,280
1749724975025.125,178378,1749724975006.344,79,95,283
1749724975045.125,178362,1749724975026.187,71,87,306
1749724975064.937,178271,1749724975046.187,73,79,307
1749724975084.719,178066,1749724975065.938,89,79,313
1749724975104.562,177723,1749724975085.813,118,90,315
1749724975124.438,177237,1749724975105.656,139,104,322
1749724975144.313,176658,1749724975125.531,159,123,334
1749724975164.156,176102,1749724975145.375,144,123,334
1749724975184.031,175648,1749724975165.219,150,128,300
1749724975203.875,175142,1749724975185.0942,120,129,275
1749724975223.75,174602,1749724975204.937,118,143,252
1749724975243.594,173855,1749724975224.844,131,159,263
1749724975263.469,172976,1749724975244.688,151,180,306
1749724975283.313,172133,1749724975264.531,163,185,280
1749724975303.219,171310,1749724975284.406,147,179,230
1749724975323.062,170494,1749724975304.281,112,169,184
1749724975342.906,169786,1749724975324.156,92,159,158
1749724975362.813,169253,1749724975343.969,81,159,145
1749724975382.656,168841,1749724975363.875,108,159,147
1749724975402.5,168435,1749724975383.875,110,171,131
1749724975422.375,168101,1749724975403.594,115,171,135
1749724975442.25,167836,1749724975423.438,112,179,124
1749724975462.094,167699,1749724975443.3442,98,203,135
1749724975481.938,167650,1749724975463.156,105,222,146
1749724975501.844,167601,1749724975483.031,112,241,183
1749724975521.656,167479,1749724975502.906,116,256,220
1749724975541.563,167392,1749724975522.719,140,271,223
1749724975561.406,167193,1749724975542.625,140,287,190
1749724975581.25,166898,1749724975562.5,145,287,167
1749724975601.125,166566,1749724975582.344,124,275,143
1749724975620.969,166234,1749724975602.219,100,268,147
1749724975640.844,165946,1749724975622.031,71,257,135
1749724975660.719,165709,1749724975641.906,55,247,131
1749724975680.562,165537,1749724975661.781,58,245,139
1749724975700.469,165394,1749724975681.625,80,241,119
1749724975720.313,165274,1749724975701.5,83,251,118
1749724975740.156,165149,1749724975721.375,101,251,120
1749724975760.062,164998,1749724975741.219,95,260,127
1749724975779.938,164831,1749724975761.156,105,263,120
1749724975799.781,164604,1749724975781.0,94,267,123
1749724975819.656,164381,1749724975800.812,92,265,126
1749724975839.531,164078,1749724975820.719,95,271,122
1749724975859.375,163617,1749724975840.594,75,271,124
1749724975879.25,163020,1749724975860.406,88,263,103
1749724975899.094,162369,1749724975880.312,87,259,118
1749724975919.0,161700,1749724975900.188,75,255,105
1749724975938.812,161068,1749724975920.063,89,268,113
1749724975958.688,160528,1749724975939.937,95,256,114
1749724975978.563,160168,1749724975959.781,96,227,122
1749724975998.437,159961,1749724975979.625,92,223,115
1749724976018.25,159903,1749724975999.5,103,220,119
1749724976038.125,159886,1749724976019.344,99,206,121
1749724976058.0,159942,1749724976039.187,91,179,134
1749724976077.844,160164,1749724976059.094,104,159,138
1749724976097.719,160456,1749724976078.938,102,163,136
1749724976117.594,160796,1749724976098.813,111,190,147
1749724976137.438,161172,1749724976118.625,144,211,157
1749724976157.281,161528,1749724976138.5,175,233,171
1749724976177.156,161882,1749724976158.344,195,257,170
1749724976197.031,162209,1749724976178.219,201,261,147
1749724976216.875,162462,1749724976198.094,179,267,148
1749724976236.7808,162604,1749724976217.906,175,259,156
1749724976256.625,162684,1749724976237.844,179,239,156
1749724976276.469,162731,1749724976257.719,173,227,159
1749724976296.375,162791,1749724976277.531,173,219,159
1749724976316.219,162862,1749724976297.406,156,216,151
1749724976336.1868,162973,1749724976317.25,159,193,153
1749724976355.937,163089,1749724976337.156,148,204,159
1749724976375.813,163207,1749724976357.0,148,195,176
1749724976395.688,163265,1749724976376.875,148,188,170
1749724976415.531,163386,1749724976396.75,159,187,175
1749724976435.406,163488,1749724976416.656,157,172,177
1749724976455.281,163554,1749724976436.469,148,159,178
1749724976475.156,163606,1749724976456.344,131,155,184
1749724976495.0,163635,1749724976476.219,159,140,182
1749724976514.906,163682,1749724976496.094,155,139,184
1749724976534.781,163848,1749724976515.969,156,143,186
1749724976554.656,164030,1749724976535.844,164,154,193
1749724976574.531,164150,1749724976555.719,158,166,204
1749724976594.375,164230,1749724976575.594,166,175,214
1749724976614.219,164175,1749724976595.406,172,183,220
1749724976634.125,164049,1749724976615.312,185,183,224
1749724976653.937,163815,1749724976635.187,183,177,215
1749724976673.812,163388,1749724976655.0,168,169,209
1749724976693.688,162912,1749724976674.875,154,158,195
1749724976713.531,162385,1749724976694.75,136,143,207
1749724976733.375,161937,1749724976714.656,133,139,191
1749724976753.25,161541,1749724976734.438,121,129,190
1749724976773.125,161271,1749724976754.281,127,131,177
1749724976792.969,161201,1749724976774.187,127,140,182
1749724976812.813,161252,1749724976794.062,127,151,176
1749724976832.687,161244,1749724976813.875,120,159,171
1749724976852.562,161214,1749724976833.75,129,167,175
1749724976872.406,161279,1749724976853.594,147,166,182
1749724976892.281,161311,1749724976873.469,135,159,177
1749724976912.156,161325,1749724976893.344,136,159,179
1749724976932.031,161296,1749724976913.219,140,151,178
1749724976951.844,161241,1749724976933.063,132,147,165
1749724976971.719,161179,1749724976952.9368,113,143,157
1749724976991.562,161137,1749724976972.781,95,131,150
1749724977011.469,160943,1749724976992.656,102,136,152
1749724977031.281,160777,1749724977012.5,115,143,169
1749724977051.156,160585,1749724977032.375,121,151,180
1749724977071.031,160419,1749724977052.25,117,172,183
1749724977090.875,160224,1749724977072.094,136,188,175
1749724977110.75,160048,1749724977091.969,127,204,167
1749724977130.625,159955,1749724977111.844,143,217,184
1749724977150.5,159837,1749724977131.687,135,241,174
1749724977170.344,159743,1749724977151.563,140,256,186
1749724977190.219,159676,1749724977171.438,136,262,179
1749724977210.063,159585,1749724977191.312,123,259,179
1749724977229.938,159500,1749724977211.125,119,263,182
1749724977249.844,159395,1749724977231.031,107,271,182
1749724977269.656,159302,1749724977250.875,104,271,179
1749724977289.531,159184,1749724977270.719,97,277,161
1749724977309.469,159084,1749724977290.562,92,283,159
1749724977329.281,159023,1749724977310.531,86,278,152
1749724977349.156,158919,1749724977330.344,81,280,151
1749724977369.0,158800,1749724977350.219,86,275,150
1749724977388.875,158646,1749724977370.094,103,270,150
1749724977408.781,158340,1749724977389.937,84,263,162
1749724977428.594,157826,1749724977409.844,88,247,166
1749724977448.469,157122,1749724977429.688,92,254,169
1749724977468.344,156307,1749724977449.531,92,235,158
1749724977488.219,155459,1749724977469.406,97,220,154
1749724977508.0618,154695,1749724977489.281,96,217,160
1749724977527.938,153985,1749724977509.125,92,219,146
1749724977547.781,153417,1749724977529.0,91,223,145
1749724977567.687,152900,1749724977548.938,92,227,132
1749724977587.5,152465,1749724977568.75,81,231,142
1749724977607.375,152097,1749724977588.594,80,230,143
1749724977627.25,151781,1749724977608.437,80,227,135
1749724977647.125,151517,1749724977628.344,89,235,132
1749724977666.969,151311,1749724977648.219,88,247,132
1749724977686.812,151125,1749724977668.031,81,255,127
1749724977706.688,150973,1749724977687.875,73,263,138
1749724977726.531,150825,1749724977707.75,81,256,137
1749724977746.406,150649,1749724977727.625,73,249,136
1749724977766.25,150447,1749724977747.469,81,239,135
1749724977786.125,150197,1749724977767.313,80,219,120
1749724977806.0,149937,1749724977787.187,74,223,120
1749724977825.844,149664,1749724977807.094,76,219,112
1749724977845.719,149416,1749724977826.906,76,208,95
1749724977865.594,149160,1749724977846.781,78,207,122
1749724977885.406,148918,1749724977866.656,80,206,120
1749724977905.281,148677,1749724977886.531,82,202,119
1749724977925.156,148470,1749724977906.375,84,205,124
1749724977945.031,148294,1749724977926.219,80,214,134
1749724977964.875,148174,1749724977946.125,76,220,131
1749724977984.75,148053,1749724977965.969,79,228,126
1749724978004.594,147966,1749724977985.813,83,231,134
1749724978024.5,147888,1749724978005.688,66,231,135
1749724978044.313,147813,1749724978025.562,72,233,135
1749724978064.188,147729,1749724978045.437,76,231,135
1749724978084.062,147632,1749724978065.281,75,223,123
1749724978103.937,147520,1749724978085.125,77,223,127
1749724978123.781,147401,1749724978105.0,96,220,134
1749724978143.656,147274,1749724978124.906,85,223,129
1749724978163.531,147136,1749724978144.687,88,223,123
1749724978183.406,146875,1749724978164.594,92,224,128
1749724978203.25,146421,1749724978184.469,85,216,127
1749724978223.125,145803,1749724978204.344,76,207,131
1749724978242.969,145115,1749724978224.188,84,207,128
1749724978262.875,144450,1749724978244.063,83,219,124
1749724978282.719,143873,1749724978263.906,83,231,126
1749724978302.594,143385,1749724978283.812,89,249,132
1749724978322.469,143011,1749724978303.656,89,263,138
1749724978342.344,142731,1749724978323.5,103,259,121
1749724978362.188,142494,1749724978343.406,111,271,127
1749724978382.063,142284,1749724978363.281,110,263,120
1749724978401.937,142070,1749724978383.156,103,249,108
1749724978421.812,141861,1749724978403.0,100,244,105
1749724978441.75,141714,1749724978422.875,88,222,103
1749724978461.531,141588,1749724978442.812,88,209,100
1749724978481.437,141485,1749724978462.594,71,213,109
1749724978501.312,141379,1749724978482.469,84,224,101
1749724978521.188,141219,1749724978502.4058,96,235,108
1749724978541.063,140999,1749724978522.25,99,239,105
1749724978560.969,140704,1749724978542.156,99,251,102
1749724978580.812,140363,1749724978562.0,102,260,97
1749724978600.688,140033,1749724978581.906,115,256,110
1749724978620.594,139721,1749724978601.781,108,247,100
1749724978640.469,139485,1749724978621.656,102,242,99
1749724978660.312,139332,1749724978641.531,96,223,103
1749724978680.188,139239,1749724978661.375,86,227,99
1749724978700.063,139145,1749724978681.25,93,230,87
1749724978719.969,139051,1749724978701.156,88,230,94
1749724978739.781,138900,1749724978721.031,95,229,102
1749724978759.688,138715,1749724978740.906,96,231,95
1749724978779.562,138531,1749724978760.781,102,236,92
1749724978799.406,138322,1749724978780.719,96,231,89
1749724978819.281,138157,1749724978800.5,97,231,92
1749724978839.156,138061,1749724978820.375,102,233,95
1749724978859.031,138004,1749724978840.219,96,230,102
1749724978878.906,137999,1749724978860.094,99,230,92
1749724978898.75,138015,1749724978879.969,110,223,94
1749724978918.594,138037,1749724978899.781,103,225,102
1749724978938.469,138082,1749724978919.656,92,231,99
1749724978958.312,138078,1749724978939.531,94,235,112
1749724978978.156,137953,1749724978959.375,92,255,119
1749724978998.063,137683,1749724978979.25,88,263,121
1749724979017.906,137259,1749724978999.125,84,263,135
1749724979037.75,136736,1749724979018.969,79,247,142
1749724979057.625,136231,1749724979038.844,75,223,142
1749724979077.469,135766,1749724979058.719,67,207,148
1749724979097.375,135396,1749724979078.656,63,211,151
1749724979117.188,135112,1749724979098.437,60,223,150
1749724979137.062,134893,1749724979118.281,68,231,152
1749724979156.938,134690,1749724979138.156,80,247,158
1749724979176.813,134566,1749724979158.0,73,257,167
1749724979196.656,134421,1749724979177.875,89,261,163
1749724979216.531,134305,1749724979197.75,83,255,167
1749724979236.406,134208,1749724979217.594,78,248,167
1749724979256.281,134117,1749724979237.469,60,235,151
1749724979276.094,134055,1749724979257.344,51,230,148
1749724979295.969,134010,1749724979277.188,49,223,148
1749724979315.844,133956,1749724979297.031,47,211,143
1749724979335.6882,133877,1749724979316.906,67,211,152
1749724979355.531,133791,1749724979336.781,67,211,142
1749724979375.406,133697,1749724979356.656,59,209,127
1749724979395.281,133594,1749724979376.469,60,217,159
1749724979415.156,133531,1749724979396.344,72,216,155
1749724979435.0,133477,1749724979416.187,76,223,152
1749724979454.875,133444,1749724979436.094,76,223,163
1749724979474.719,133412,1749724979455.906,71,214,147
1749724979494.625,133389,1749724979475.781,60,223,167
1749724979514.438,133349,1749724979495.656,71,222,167
1749724979534.312,133305,1749724979515.531,63,223,129
1749724979554.187,133264,1749724979535.375,70,223,140
1749724979574.063,133263,1749724979555.25,66,219,146
1749724979593.906,133243,1749724979575.156,62,218,156
1749724979613.781,133242,1749724979595.031,60,217,158
1749724979633.687,133252,1749724979614.844,58,217,159
1749724979653.531,133258,1749724979634.75,72,217,158
1749724979673.406,133229,1749724979654.625,76,211,151
1749724979693.312,133252,1749724979674.469,68,217,156
1749724979713.156,133215,1749724979694.344,71,207,148
1749724979733.031,133126,1749724979714.219,64,216,147
1749724979752.875,132912,1749724979734.125,71,211,145
1749724979772.75,132629,1749724979753.937,70,214,135
1749724979792.625,132298,1749724979773.813,83,207,142
1749724979812.5,131940,1749724979793.719,72,206,141
1749724979832.344,131643,1749724979813.562,83,201,140
1749724979852.25,131389,1749724979833.406,79,203,137
1749724979872.094,131210,1749724979853.313,72,209,136
1749724979891.969,131083,1749724979873.219,71,207,145
1749724979911.813,130999,1749724979893.062,81,211,144
1749724979931.688,130953,1749724979912.875,75,211,146
1749724979951.562,130935,1749724979932.75,76,211,145
1749724979971.406,130952,1749724979952.656,83,222,144
1749724979991.25,130955,1749724979972.5,87,231,140
1749724980011.125,130976,1749724979992.344,76,234,146
1749724980031.0,130961,1749724980012.187,76,229,152
1749724980050.844,130930,1749724980032.063,79,232,145
1749724980070.688,130888,1749724980051.938,83,245,135
1749724980090.563,130801,1749724980071.75,87,256,127
1749724980110.437,130694,1749724980091.656,88,263,135
1749724980130.281,130578,1749724980111.5,88,268,147
1749724980150.125,130463,1749724980131.375,89,261,138
1749724980170.031,130339,1749724980151.187,79,243,127
1749724980189.9058,130235,1749724980171.094,86,235,120
1749724980209.719,130160,1749724980190.969,75,231,116
1749724980229.594,130107,1749724980210.844,67,228,119
1749724980249.469,130095,1749724980230.656,68,227,131
1749724980269.313,130075,1749724980250.531,79,227,130
1749724980289.156,130039,1749724980270.406,79,236,126
1749724980309.125,129995,1749724980290.25,85,241,134
1749724980328.875,129948,1749724980310.187,83,256,131
1749724980348.75,129888,1749724980329.969,79,263,127
1749724980368.594,129821,1749724980349.844,79,275,126
1749724980388.469,129761,1749724980369.719,77,279,129
1749724980408.344,129694,1749724980389.531,83,271,124
1749724980428.219,129571,1749724980409.406,77,256,134
1749724980448.062,129338,1749724980429.281,78,259,120
1749724980467.937,128996,1749724980449.156,81,243,123
1749724980487.813,128566,1749724980469.0,80,233,116
1749724980507.688,128093,1749724980488.875,71,230,95
1749724980527.531,127641,1749724980508.75,71,223,114
1749724980547.406,127254,1749724980528.594,76,215,110
1749724980567.281,126950,1749724980548.469,71,204,124
1749724980587.156,126991,1749724980568.3442,83,206,143
1749724980607.0,127729,1749724980588.219,120,203,163
1749724980626.844,128714,1749724980608.063,136,211,188
1749724980646.75,129639,1749724980627.906,140,211,202
1749724980666.594,130604,1749724980647.812,135,215,218
1749724980686.438,131538,1749724980667.656,140,227,214
1749724980706.312,132545,1749724980687.5,147,211,206
1749724980726.187,133641,1749724980707.375,150,203,203
1749724980746.063,134958,1749724980727.25,152,192,199
1749724980765.906,136441,1749724980747.156,135,178,212
1749724980785.781,138010,1749724980766.969,140,187,216
1749724980805.687,139472,1749724980786.844,135,189,207
1749724980825.531,140666,1749724980806.75,161,192,224
1749724980845.375,141751,1749724980826.594,184,192,236
1749724980865.281,142935,1749724980846.469,185,159,275
1749724980885.125,144566,1749724980866.344,163,117,294
1749724980905.0,146520,1749724980886.188,140,94,296
1749724980924.875,148428,1749724980906.094,135,103,280
1749724980944.75,150081,1749724980925.937,159,153,268
1749724980964.625,151315,1749724980945.844,179,203,275
1749724980984.469,152340,1749724980965.719,190,231,302
1749724981004.375,153306,1749724980985.594,191,231,302
1749724981024.25,154255,1749724981005.531,163,231,264
1749724981044.156,155158,1749724981025.344,131,227,220
1749724981064.0,155835,1749724981045.187,120,211,192
1749724981083.844,156405,1749724981065.094,118,195,176
1749724981103.75,157132,1749724981084.906,112,171,167
1749724981123.594,157967,1749724981104.813,96,159,151
1749724981143.438,158666,1749724981124.687,86,143,143
1749724981163.313,159044,1749724981144.531,71,131,160
1749724981183.156,159118,1749724981164.375,63,102,182
1749724981203.094,159169,1749724981184.219,47,81,184
1749724981222.875,159102,1749724981204.156,40,59,179
1749724981242.75,159039,1749724981223.937,33,76,188
1749724981262.625,159130,1749724981243.812,28,55,218
1749724981282.5,159477,1749724981263.688,30,60,223
1749724981302.344,159955,1749724981283.563,8,52,232
1749724981322.219,160450,1749724981303.406,7,43,231
1749724981342.125,160994,1749724981323.281,-1,47,230
1749724981361.969,161690,1749724981343.25,8,41,227
1749724981381.844,162443,1749724981363.031,-2,39,227
1749724981401.688,163108,1749724981382.906,4,39,235
1749724981421.562,163742,1749724981402.75,30,39,243
1749724981441.437,164456,1749724981422.594,48,51,236
1749724981461.25,165143,1749724981442.531,62,63,228
1749724981481.125,165712,1749724981462.312,65,83,218
1749724981501.0,166228,1749724981482.187,71,83,207
1749724981520.844,166609,1749724981502.094,63,87,224
1749724981540.687,166913,1749724981521.938,70,83,238
1749724981560.563,167137,1749724981541.75,78,69,252
1749724981580.438,167398,1749724981561.625,71,57,256
1749724981600.281,167667,1749724981581.5,63,47,263
1749724981620.125,167886,1749724981601.344,52,49,273
1749724981640.0,168140,1749724981621.188,64,56,281
1749724981659.875,168487,1749724981641.062,75,63,286
1749724981679.719,169016,1749724981660.937,83,78,271
1749724981699.562,169284,1749724981680.781,87,87,272
1749724981719.469,169398,1749724981700.656,76,95,302
1749724981739.313,169538,1749724981720.531,94,88,331
1749724981759.156,169865,1749724981740.406,73,75,342
1749724981779.062,170312,1749724981760.281,68,73,335
1749724981798.906,170656,1749724981780.094,63,79,335
1749724981818.781,170872,1749724981799.969,79,102,358
1749724981838.625,170941,1749724981819.875,92,103,375
1749724981858.5,171036,1749724981839.719,86,102,387
1749724981878.375,171020,1749724981859.531,74,89,391
1749724981898.219,170857,1749724981879.469,60,86,404
1749724981918.063,170682,1749724981899.312,80,91,423
1749724981937.937,170553,1749724981919.156,78,91,424
1749724981957.844,170563,1749724981939.0,80,91,428
1749724981977.688,170813,1749724981958.875,79,88,419
1749724981997.531,171146,1749724981978.75,63,78,412
1749724982017.375,171325,1749724981998.594,51,79,403
1749724982037.25,171403,1749724982018.438,54,78,416
1749724982057.094,171375,1749724982038.313,60,71,399
1749724982076.938,171404,1749724982058.156,63,73,396
1749724982096.781,171546,1749724982078.125,63,70,371
1749724982116.656,171552,1749724982097.875,48,70,343
1749724982136.531,171463,1749724982117.75,56,67,344
1749724982156.375,171275,1749724982137.594,63,63,353
1749724982176.312,171097,1749724982157.469,75,51,359
1749724982196.125,170987,1749724982177.344,61,45,326
1749724982216.0,170892,1749724982197.156,60,47,301
1749724982235.844,170769,1749724982217.062,56,31,294
1749724982255.688,170549,1749724982236.906,48,35,289
1749724982275.562,170511,1749724982256.75,49,31,307
1749724982295.437,170503,1749724982276.594,57,28,287
1749724982315.281,170528,1749724982296.5,38,24,260
1749724982335.125,170511,1749724982316.344,39,11,267
1749724982355.0,170453,1749724982336.1868,35,7,268
1749724982374.875,170477,1749724982356.063,28,0,275
1749724982394.719,170381,1749724982375.938,43,9,255
1749724982414.563,170188,1749724982395.812,32,11,228
1749724982434.438,170170,1749724982415.625,51,7,208
1749724982454.344,170398,1749724982435.5,83,9,194
1749724982474.125,170659,1749724982455.5,51,31,175
1749724982494.0,170912,1749724982475.25,24,31,177
1749724982513.875,171061,1749724982495.094,27,31,176
1749724982533.719,171017,1749724982514.937,60,47,160
1749724982553.562,170883,1749724982534.781,76,47,166
1749724982573.438,170635,1749724982554.656,80,39,174
1749724982593.281,170360,1749724982574.5,67,15,176
1749724982613.156,170119,1749724982594.344,44,15,188
1749724982633.0,170019,1749724982614.219,57,15,190
1749724982652.844,169973,1749724982634.063,61,7,199
1749724982672.688,169970,1749724982653.906,60,14,211
1749724982692.594,170069,1749724982673.75,56,15,223
1749724982712.437,170186,1749724982693.656,63,28,236
1749724982732.312,170341,1749724982713.531,72,23,243
1749724982752.188,170550,1749724982733.344,79,23,233
1749724982772.063,170821,1749724982753.25,63,19,254
1749724982791.906,171101,1749724982773.125,49,13,262
1749724982811.75,171416,1749724982792.969,40,15,272
1749724982831.625,171724,1749724982812.969,41,17,266
1749724982851.5,171944,1749724982832.687,54,20,268
1749724982871.344,172116,1749724982852.562,63,25,270
1749724982891.219,172253,1749724982872.438,72,22,278
1749724982911.188,172432,1749724982892.281,67,13,268
1749724982930.969,172780,1749724982912.25,64,15,255
1749724982950.781,173103,1749724982932.0,64,15,248
1749724982970.656,173326,1749724982951.844,70,23,246
1749724982990.531,173564,1749724982971.719,62,24,254
1749724983010.406,173852,1749724982991.594,89,39,248
1749724983030.25,174034,1749724983011.469,80,43,227
1749724983050.125,174086,1749724983031.313,88,31,220
1749724983069.969,174090,1749724983051.219,76,31,259
1749724983089.844,174211,1749724983071.031,44,3,295
1749724983109.688,174357,1749724983090.906,27,0,287
1749724983129.562,174459,1749724983110.75,32,7,299
1749724983149.406,174526,1749724983130.656,46,11,296
1749724983169.281,174623,1749724983150.5,35,3,328
1749724983189.156,174608,1749724983170.375,27,11,336
1749724983209.0,174519,1749724983190.219,24,24,332
1749724983228.906,174327,1749724983210.094,27,25,327
1749724983248.75,174193,1749724983229.969,20,11,334
1749724983268.594,174267,1749724983249.906,7,7,342
1749724983288.469,174452,1749724983269.687,15,15,323
1749724983308.344,174656,1749724983289.531,30,39,315
1749724983328.188,174855,1749724983309.406,49,38,330
1749724983348.063,175216,1749724983329.281,31,25,362
1749724983367.937,175884,1749724983349.125,19,15,378
1749724983387.812,176612,1749724983369.031,32,39,382
1749724983407.656,176937,1749724983388.844,60,55,419
1749724983427.594,177032,1749724983408.781,83,59,457
1749724983447.406,177231,1749724983428.594,82,48,463
1749724983467.312,177505,1749724983448.469,66,27,472
1749724983487.156,177627,1749724983468.406,51,28,448
1749724983507.031,177624,1749724983488.25,46,23,448
1749724983526.906,177661,1749724983508.094,54,15,442
1749724983546.75,177795,1749724983528.0,63,24,425
1749724983566.625,177860,1749724983547.781,60,23,387
1749724983586.531,177858,1749724983567.719,51,31,374
1749724983606.375,177884,1749724983587.594,60,28,352
1749724983626.281,177877,1749724983607.438,63,25,345
1749724983646.094,177818,1749724983627.344,39,19,339
1749724983665.969,177767,1749724983647.187,32,19,335
1749724983685.875,177725,1749724983667.062,48,15,318
1749724983705.719,177701,1749724983686.938,48,23,302
1749724983725.563,177694,1749724983706.781,60,25,306
1749724983745.469,177683,1749724983726.625,44,11,307
1749724983765.312,177618,1749724983746.531,24,9,328
1749724983785.156,177400,1749724983766.375,31,15,318
1749724983805.031,177062,1749724983786.25,46,11,296
1749724983824.906,176649,1749724983806.094,55,7,290
1749724983844.75,176137,1749724983825.969,60,31,275
1749724983864.625,175686,1749724983845.813,60,15,282
1749724983884.469,175295,1749724983865.688,46,12,274
1749724983904.344,175047,1749724983885.5,39,15,239
1749724983924.219,174925,1749724983905.437,56,19,204
1749724983944.031,174845,1749724983925.281,59,31,181
1749724983963.906,174841,1749724983945.125,56,15,201
1749724983983.781,174840,1749724983965.0,51,11,215
1749724984003.625,174922,1749724983984.844,55,22,207
1749724984023.469,175076,1749724984004.656,55,15,177
1749724984043.437,175168,1749724984024.563,62,27,175
1749724984063.25,175175,1749724984044.5,57,31,191
1749724984083.063,175190,1749724984064.281,49,31,195
1749724984102.875,175181,1749724984084.125,71,31,205
1749724984122.75,175098,1749724984104.0,67,39,207
1749724984142.625,174990,1749724984123.781,72,33,199
1749724984162.5,174887,1749724984143.687,62,39,222
1749724984182.344,174799,1749724984163.531,56,33,220
1749724984202.187,174800,1749724984183.438,51,22,242
1749724984222.062,174807,1749724984203.281,49,25,243
1749724984241.9382,174818,1749724984223.094,63,31,241
1749724984261.781,174753,1749724984242.969,56,32,253
1749724984281.656,174683,1749724984262.875,45,31,283
1749724984301.5,174594,1749724984282.719,40,21,304
1749724984321.375,174543,1749724984302.594,47,23,313
1749724984341.188,174532,1749724984322.437,63,25,302
1749724984361.094,174575,1749724984342.312,63,39,295
1749724984380.969,174553,1749724984362.125,60,39,281
1749724984400.812,174371,1749724984382.031,61,31,263
1749724984420.656,173999,1749724984401.875,48,39,263
1749724984440.562,173484,1749724984421.75,51,30,254
1749724984460.375,172959,1749724984441.625,76,28,252
1749724984480.281,172523,1749724984461.469,78,23,234
1749724984500.156,172191,1749724984481.344,62,20,232
1749724984519.969,171987,1749724984501.219,59,51,248
1749724984539.812,171864,1749724984521.031,73,56,250
1749724984559.687,171757,1749724984540.906,81,71,236
1749724984579.531,171635,1749724984560.781,71,63,241
1749724984599.406,171559,1749724984580.687,55,46,234
1749724984619.281,171535,1749724984600.5,55,31,246
1749724984639.156,171482,1749724984620.344,46,31,247
1749724984659.0,171412,1749724984640.219,47,31,246
1749724984678.844,171268,1749724984660.125,72,39,236
1749724984698.719,171108,1749724984679.9368,57,31,239
1749724984718.625,170937,1749724984699.813,41,26,248
1749724984738.437,170780,1749724984719.688,46,28,247
1749724984758.313,170691,1749724984739.531,51,31,240
1749724984778.188,170637,1749724984759.375,63,39,247
1749724984798.031,170673,1749724984779.25,49,48,265
1749724984817.906,170711,1749724984799.094,46,40,284
1749724984837.75,170671,1749724984819.0,52,49,300
1749724984857.625,170609,1749724984838.812,67,56,298
1749724984877.531,170649,1749724984858.687,79,63,316
1749724984897.344,170729,1749724984878.563,53,56,355
1749724984917.219,170907,1749724984898.438,54,47,359
1749724984937.094,171034,1749724984918.281,59,55,343
1749724984956.969,171031,1749724984938.188,64,55,343
1749724984976.8118,171056,1749724984958.031,70,54,335
1749724984996.688,171113,1749724984977.875,60,57,338
1749724985016.531,171047,1749724984997.719,51,77,326
1749724985036.406,170687,1749724985017.625,54,95,314
1749724985056.281,170024,1749724985037.469,44,95,334
1749724985076.125,169353,1749724985057.313,62,89,369
1749724985096.0,168955,1749724985077.187,80,87,387
1749724985115.875,168769,1749724985097.062,83,95,384
1749724985135.687,168475,1749724985116.906,71,103,363
1749724985155.594,168148,1749724985136.75,64,99,396
1749724985175.5,167918,1749724985156.625,71,101,423
1749724985195.312,167752,1749724985176.562,56,92,435
1749724985215.187,167577,1749724985196.375,25,75,431
1749724985235.031,167420,1749724985216.25,20,71,440
1749724985254.906,167317,1749724985236.125,46,61,446
1749724985274.75,167261,1749724985255.969,53,63,448
1749724985294.625,167281,1749724985275.875,54,70,435
1749724985314.5,167221,1749724985295.688,51,88,404
1749724985334.375,167016,1749724985315.562,38,71,367
1749724985354.188,166821,1749724985335.437,29,71,348
1749724985374.094,166593,1749724985355.313,39,59,354
1749724985393.969,166417,1749724985375.156,56,59,339
1749724985413.844,166321,1749724985395.031,71,55,335
1749724985433.688,166145,1749724985414.969,64,51,318
1749724985453.562,166062,1749724985434.781,51,47,306
1749724985473.437,166031,1749724985454.625,48,51,311
1749724985493.313,166008,1749724985474.5,57,47,312
1749724985513.156,165998,1749724985494.406,44,35,305
1749724985533.031,166032,1749724985514.281,44,31,298
1749724985552.906,166037,1749724985534.094,46,47,284
1749724985572.813,166129,1749724985554.0,35,30,283
1749724985592.625,166176,1749724985573.844,71,23,275
1749724985612.5,166231,1749724985593.719,44,19,283
1749724985632.375,166237,1749724985613.594,60,25,280
1749724985652.25,166128,1749724985633.438,49,39,263
1749724985672.125,165854,1749724985653.344,48,22,236
1749724985691.969,165460,1749724985673.187,38,31,228
1749724985711.875,165048,1749724985693.031,44,31,216
1749724985731.75,164662,1749724985712.938,56,41,175
1749724985751.594,164361,1749724985732.812,68,44,170
1749724985771.437,164148,1749724985752.656,56,30,175
1749724985791.344,164011,1749724985772.531,56,35,163
1749724985811.188,163922,1749724985792.406,44,31,166
1749724985831.063,163856,1749724985812.281,62,37,159
1749724985850.937,163796,1749724985832.125,65,35,163
1749724985870.781,163789,1749724985852.0,70,31,176
1749724985890.656,163840,1749724985871.875,56,15,203
1749724985910.594,163882,1749724985891.75,49,7,207
1749724985930.406,163974,1749724985911.656,50,3,230
1749724985950.281,164130,1749724985931.469,63,9,246
1749724985970.094,164250,1749724985951.313,48,19,275
1749724985989.969,164304,1749724985971.187,48,15,306
1749724986009.844,164322,1749724985991.031,44,6,329
1749724986029.719,164396,1749724986010.875,32,-9,343
1749724986049.562,164498,1749724986030.75,32,4,342
1749724986069.406,164649,1749724986050.625,62,3,331
1749724986089.281,164855,1749724986070.5,71,6,318
1749724986109.125,165040,1749724986090.344,63,12,303
1749724986129.0,165203,1749724986110.188,60,19,295
1749724986148.875,165403,1749724986130.094,71,25,283
1749724986168.719,165639,1749724986149.937,74,31,257
1749724986188.625,165891,1749724986169.812,75,30,254
1749724986208.469,166134,1749724986189.688,71,28,239
1749724986228.344,166384,1749724986209.594,67,27,231
1749724986248.219,166650,1749724986229.406,64,31,212
1749724986268.062,166911,1749724986249.281,63,44,195
1749724986287.937,167130,1749724986269.125,62,47,199
1749724986307.781,167199,1749724986289.0,57,51,208
1749724986327.656,167088,1749724986308.875,54,47,212
1749724986347.562,166857,1749724986328.719,40,31,209
1749724986367.406,166615,1749724986348.625,39,31,194
1749724986387.25,166386,1749724986368.469,48,31,191
1749724986407.125,166207,1749724986388.312,43,31,208
1749724986427.0,166098,1749724986408.187,54,24,222
1749724986446.844,166083,1749724986428.031,54,32,211
1749724986466.719,166151,1749724986447.938,40,15,228
1749724986486.594,166297,1749724986467.75,55,15,219
1749724986506.469,166412,1749724986487.656,54,29,240
1749724986526.312,166532,1749724986507.531,60,39,243
1749724986546.187,166692,1749724986527.375,55,31,252
1749724986566.031,166851,1749724986547.25,44,27,266
1749724986585.906,167062,1749724986567.094,51,31,268
1749724986605.719,167224,1749724986586.969,60,55,282
1749724986625.594,167294,1749724986606.781,65,67,299
1749724986645.469,167352,1749724986626.688,63,67,318
1749724986665.313,167488,1749724986646.531,67,63,313
1749724986685.156,167757,1749724986666.406,64,70,307
1749724986705.031,168071,1749724986686.25,67,71,323
1749724986724.906,168463,1749724986706.094,79,88,344
1749724986744.781,168706,1749724986725.969,85,111,360
1749724986764.719,168699,1749724986745.844,86,108,375
1749724986784.469,168675,1749724986765.688,75,122,399
1749724986804.344,168734,1749724986785.531,66,75,425
1749724986824.188,168924,1749724986805.375,72,87,432
1749724986844.031,169134,1749724986825.25,112,103,431
1749724986863.937,169270,1749724986845.125,124,111,455
1749724986883.781,169425,1749724986865.0,98,103,435
1749724986903.625,169593,1749724986884.844,67,99,379
1749724986923.531,169712,1749724986904.719,64,91,379
1749724986943.437,169822,1749724986924.594,60,87,409
1749724986963.281,169926,1749724986944.5,70,79,419
1749724986983.094,170034,1749724986964.313,65,79,403
1749724987002.969,169978,1749724986984.1868,63,89,387
1749724987022.844,169745,1749724987004.031,64,89,390
1749724987042.719,169446,1749724987023.938,73,87,388
1749724987062.563,169256,1749724987043.781,88,91,382
1749724987082.438,169194,1749724987063.656,78,81,373
1749724987102.281,169111,1749724987083.469,63,79,365
1749724987122.156,168974,1749724987103.344,48,79,353
1749724987142.0,168868,1749724987123.25,54,71,352
1749724987161.844,168802,1749724987143.062,65,71,350
1749724987181.75,168800,1749724987162.937,62,67,340
1749724987201.594,168782,1749724987182.781,56,63,339
1749724987221.437,168742,1749724987202.656,44,63,336
1749724987241.313,168682,1749724987222.562,63,63,320
1749724987261.188,168671,1749724987242.375,78,63,319
1749724987281.031,168627,1749724987262.219,72,64,312
1749724987300.875,168631,1749724987282.125,48,51,319
1749724987320.75,168593,1749724987301.969,41,47,318
1749724987340.625,168562,1749724987321.844,40,39,307
1749724987360.5,168542,1749724987341.687,53,39,295
1749724987380.312,168557,1749724987361.563,44,35,295
1749724987400.188,168521,1749724987381.438,36,30,286
1749724987420.063,168549,1749724987401.25,40,41,299
1749724987439.937,168700,1749724987421.156,52,31,278
1749724987459.781,168906,1749724987441.0,63,39,243
1749724987479.625,169109,1749724987460.844,51,51,225
1749724987499.594,169333,1749724987480.687,58,67,206
1749724987519.344,169534,1749724987500.531,64,96,186
1749724987539.187,169705,1749724987520.406,81,76,159
1749724987559.094,169960,1749724987540.313,79,79,143
1749724987578.938,170116,1749724987560.125,63,59,148
1749724987598.813,170117,1749724987580.0,39,49,124
1749724987618.625,170101,1749724987599.875,52,35,130
1749724987638.5,170097,1749724987619.719,64,19,129
1749724987658.375,170080,1749724987639.563,63,7,143
1749724987678.313,169966,1749724987659.437,48,1,163
1749724987698.094,169825,1749724987679.375,24,-17,202
1749724987717.969,169618,1749724987699.188,1,-37,239
1749724987737.813,169440,1749724987719.031,-8,-59,271
1749724987757.656,169313,1749724987738.875,-4,-52,311
1749724987777.5,169345,1749724987758.719,15,-49,323
1749724987797.375,169451,1749724987778.625,48,-41,313
1749724987817.219,169557,1749724987798.438,41,-33,296
1749724987837.094,169715,1749724987818.281,44,-23,304
1749724987856.906,169937,1749724987838.156,60,-10,296
1749724987876.781,170215,1749724987858.031,48,-13,280
1749724987896.75,170493,1749724987877.875,28,-13,265
1749724987916.531,170695,1749724987897.688,39,-1,236
1749724987936.375,170883,1749724987917.594,39,1,231
1749724987956.25,171069,1749724987937.469,47,3,230
1749724987976.094,171255,1749724987957.313,48,11,232
1749724987995.969,171451,1749724987977.156,48,12,222
1749724988015.781,171677,1749724987997.031,51,28,214
1749724988035.687,171793,1749724988016.969,35,39,199
1749724988055.562,171862,1749724988036.719,49,43,197
1749724988075.406,171913,1749724988056.625,60,27,199
1749724988095.25,171972,1749724988076.469,56,19,199
1749724988115.125,172049,1749724988096.344,75,15,203
1749724988135.0,172155,1749724988116.156,60,9,210
1749724988154.844,172261,1749724988136.031,46,0,225
1749724988174.688,172330,1749724988155.906,40,0,222
1749724988194.531,172435,1749724988175.75,39,-12,220
1749724988214.406,172598,1749724988195.625,55,-10,239
1749724988234.281,172766,1749724988215.469,54,-9,255
1749724988254.125,172833,1749724988235.344,56,15,256
1749724988274.0,172808,1749724988255.219,67,15,268
1749724988293.844,172735,1749724988275.062,75,15,270
1749724988313.719,172655,1749724988294.938,64,12,271
1749724988333.563,172605,1749724988314.75,64,15,304
1749724988353.406,172702,1749724988334.625,56,23,316
1749724988373.312,172767,1749724988354.5,60,43,318
1749724988393.156,172693,1749724988374.375,63,55,312
1749724988413.0,172662,1749724988394.219,62,55,311
1749724988432.875,172782,1749724988414.156,70,51,332
1749724988452.75,172984,1749724988433.937,63,47,344
1749724988472.625,173319,1749724988453.844,63,54,358
1749724988492.594,173728,1749724988473.688,70,57,370
1749724988512.344,174053,1749724988493.656,59,55,370
1749724988532.188,174325,1749724988513.406,39,57,380
1749724988552.062,174698,1749724988533.219,56,62,400
1749724988571.875,175301,1749724988553.125,72,79,420
1749724988591.75,175833,1749724988572.969,95,99,408
1749724988611.625,176284,1749724988592.812,71,95,400
1749724988631.5,176803,1749724988612.719,81,95,415
1749724988651.375,177454,1749724988632.5632,79,95,433
1749724988671.219,178149,1749724988652.406,72,95,423
1749724988691.094,178721,1749724988672.312,56,98,415
1749724988710.938,179116,1749724988692.156,51,95,422
1749724988730.812,179410,1749724988712.031,63,87,414
1749724988750.688,179671,1749724988731.906,79,87,415
1749724988770.563,179957,1749724988751.844,102,89,414
1749724988790.406,180232,1749724988771.625,105,79,406
1749724988810.281,180440,1749724988791.469,99,75,383
1749724988830.156,180655,1749724988811.344,77,62,371
1749724988850.063,180880,1749724988831.219,63,55,359
1749724988869.875,181042,1749724988851.125,76,61,367
1749724988889.75,181184,1749724988870.938,83,57,355
1749724988909.625,181376,1749724988890.8132,99,51,343
1749724988929.5,181584,1749724988910.687,97,44,323
1749724988949.344,181755,1749724988930.562,80,47,315
1749724988969.312,181823,1749724988950.438,88,51,318
1749724988989.125,181791,1749724988970.281,91,64,313
1749724989009.0,181715,1749724988990.187,111,47,303
1749724989028.8442,181582,1749724989010.062,99,39,284
1749724989048.719,181428,1749724989029.938,72,31,280
1749724989068.594,181328,1749724989049.813,67,31,267
1749724989088.469,181259,1749724989069.656,80,31,263
1749724989108.313,181240,1749724989089.531,86,30,263
1749724989128.187,181187,1749724989109.375,95,25,263
1749724989148.062,181145,1749724989129.25,91,15,254
1749724989167.938,181236,1749724989149.125,73,11,239
1749724989187.781,181344,1749724989169.0,62,11,226
1749724989207.625,181448,1749724989188.844,64,19,217
1749724989227.5,181496,1749724989208.719,70,30,209
1749724989247.469,181489,1749724989228.594,83,47,196
1749724989267.281,181443,1749724989248.562,96,47,175
1749724989287.125,181361,1749724989268.281,83,45,167
1749724989306.969,181221,1749724989288.188,76,44,163
1749724989326.813,181016,1749724989308.063,80,38,164
1749724989346.719,180792,1749724989327.9368,84,47,156
1749724989366.562,180548,1749724989347.781,81,31,151
1749724989386.437,180325,1749724989367.625,80,15,156
1749724989406.281,180116,1749724989387.469,79,15,183
1749724989426.125,179958,1749724989407.344,43,7,210
1749724989446.0,179839,1749724989427.219,15,-12,239
1749724989465.875,179728,1749724989447.063,20,-35,279
1749724989485.719,179610,1749724989466.938,35,-41,318
1749724989505.594,179525,1749724989486.812,63,-21,364
1749724989525.469,179464,1749724989506.625,102,-9,367
1749724989545.344,179452,1749724989526.563,110,-9,342
1749724989565.187,179455,1749724989546.469,102,0,319
1749724989585.094,179475,1749724989566.281,72,7,303
1749724989604.969,179470,1749724989586.1868,71,8,279
1749724989624.844,179430,1749724989606.031,76,15,262
1749724989644.687,179295,1749724989625.906,71,15,242
1749724989664.594,179147,1749724989645.781,64,15,226
1749724989684.5,178957,1749724989665.625,71,20,220
1749724989704.375,178799,1749724989685.531,71,31,211
1749724989724.219,178677,1749724989705.438,71,28,211
1749724989744.094,178641,1749724989725.281,67,27,215
1749724989763.969,178669,1749724989745.187,57,31,216
1749724989783.844,178724,1749724989765.031,64,47,206
1749724989803.719,178777,1749724989784.938,76,49,204
1749724989823.625,178780,1749724989804.812,76,41,204
1749724989843.5,178757,1749724989824.656,87,24,199
1749724989863.375,178781,1749724989844.563,86,15,219
1749724989883.25,178776,1749724989864.469,71,0,215
1749724989903.156,178748,1749724989884.312,63,0,207
1749724989923.031,178669,1749724989904.219,63,6,222
1749724989942.875,178637,1749724989924.125,80,7,249
1749724989962.781,178557,1749724989943.969,107,0,274
1749724989982.656,178483,1749724989963.844,105,-10,287
1749724990002.531,178453,1749724989983.719,103,-13,295
1749724990022.406,178424,1749724990003.563,79,-8,298
1749724990042.281,178353,1749724990023.469,83,3,318
1749724990062.156,178124,1749724990043.312,121,15,332
1749724990082.031,177932,1749724990063.219,124,21,337
1749724990101.938,177797,1749724990083.156,96,20,327
1749724990121.813,177656,1749724990102.969,87,25,318
1749724990141.719,177559,1749724990122.875,108,27,335
1749724990161.594,177445,1749724990142.781,140,44,354
1749724990181.438,177361,1749724990162.656,126,56,339
1749724990201.344,177333,1749724990182.531,101,31,342
1749724990221.187,177206,1749724990202.375,96,35,350
1749724990241.062,176964,1749724990222.281,101,42,375
1749724990260.938,176685,1749724990242.188,120,31,396
1749724990280.813,176419,1749724990262.0,121,19,411
1749724990300.719,176171,1749724990281.875,97,19,408
1749724990320.5618,175883,1749724990301.781,92,30,418
1749724990340.438,175638,1749724990321.594,140,35,439
1749724990360.344,175413,1749724990341.562,155,29,439
1749724990380.187,175240,1749724990361.375,140,39,422
1749724990400.062,175148,1749724990381.281,120,47,406
1749724990419.938,175091,1749724990401.125,120,50,408
1749724990439.813,175048,1749724990421.0,121,39,403
1749724990459.625,175001,1749724990440.875,112,37,391
1749724990479.531,174959,1749724990460.75,119,49,388
1749724990499.5,174905,1749724990480.594,118,31,367
1749724990519.281,174879,1749724990500.562,120,25,354
1749724990539.125,174845,1749724990520.344,111,31,342
1749724990558.969,174764,1749724990540.219,115,31,331
1749724990578.844,174681,1749724990560.063,108,31,316
1749724990598.75,174575,1749724990579.937,104,19,310
1749724990618.562,174453,1749724990599.781,96,11,307
1749724990638.469,174380,1749724990619.688,96,15,300
1749724990658.344,174363,1749724990639.531,101,15,311
1749724990678.188,174377,1749724990659.406,104,17,307
1749724990698.031,174401,1749724990679.281,103,12,296
1749724990717.937,174397,1749724990699.125,104,18,270
1749724990737.781,174412,1749724990719.0,89,13,270
1749724990757.656,174438,1749724990738.844,86,15,271
1749724990777.531,174485,1749724990758.719,96,19,267
1749724990797.375,174520,1749724990778.625,96,23,248
1749724990817.25,174510,1749724990798.438,94,19,239
1749724990837.188,174418,1749724990818.312,83,22,223
1749724990856.9692,174236,1749724990838.281,78,31,220
1749724990876.844,174004,1749724990858.031,71,29,223
1749724990896.75,173771,1749724990877.906,76,31,220
1749724990916.594,173518,1749724990897.812,88,28,202
1749724990936.438,173321,1749724990917.656,84,29,183
1749724990956.437,173127,1749724990937.531,80,26,179
1749724990976.187,172983,1749724990957.375,65,32,173
1749724990996.063,172853,1749724990977.25,67,25,179
1749724991015.906,172770,1749724990997.156,76,25,186
1749724991035.812,172708,1749724991016.937,81,11,192
1749724991055.687,172626,1749724991036.844,89,9,194
1749724991075.5,172486,1749724991056.75,92,4,170
1749724991095.406,172307,1749724991076.594,86,3,167
1749724991115.25,172001,1749724991096.469,64,1,198
1749724991135.156,171577,1749724991116.344,47,0,214
1749724991154.969,171191,1749724991136.219,48,1,220
1749724991174.844,170779,1749724991156.0618,35,7,259
1749724991194.687,170417,1749724991175.875,49,20,335
1749724991214.562,170189,1749724991195.75,88,19,398
1749724991234.406,170051,1749724991215.656,107,15,387
1749724991254.281,169935,1749724991235.5,78,23,342
1749724991274.156,169911,1749724991255.312,71,29,321
1749724991294.031,169904,1749724991275.219,56,30,313
1749724991313.844,169948,1749724991295.094,51,28,304
1749724991333.75,170091,1749724991314.937,67,29,299
1749724991353.594,170396,1749724991334.812,62,31,280
1749724991373.469,170628,1749724991354.656,53,48,260
1749724991393.312,170808,1749724991374.531,60,55,263
1749724991413.156,171047,1749724991394.406,78,55,263
1749724991433.063,171310,1749724991414.219,73,55,272
1749724991452.969,171505,1749724991434.125,71,47,284
1749724991472.75,171535,1749724991454.0,51,48,279
1749724991492.656,171531,1749724991473.844,63,31,294
1749724991512.531,171596,1749724991493.687,72,31,295
1749724991532.375,171716,1749724991513.594,79,31,299
1749724991552.219,171719,1749724991533.469,88,30,307
1749724991572.094,171795,1749724991553.344,76,27,312
1749724991591.969,171956,1749724991573.187,68,29,304
1749724991611.875,172110,1749724991593.062,57,23,316
1749724991631.719,172246,1749724991612.938,62,31,327
1749724991651.594,172303,1749724991632.812,88,41,339
1749724991671.469,172436,1749724991652.656,73,50,348
1749724991691.344,172730,1749724991672.5,91,51,327
1749724991711.1868,173062,1749724991692.406,91,63,316
1749724991731.094,173347,1749724991712.25,70,67,304
1749724991750.938,173599,1749724991732.156,72,65,285
1749724991770.812,173907,1749724991752.031,69,72,275
1749724991790.656,174156,1749724991771.875,63,55,266
1749724991810.531,174328,1749724991791.719,57,51,245
1749724991830.406,174412,1749724991811.594,54,51,239
1749724991850.25,174463,1749724991831.469,65,47,234
1749724991870.125,174520,1749724991851.3132,70,43,236
1749724991890.0,174590,1749724991871.25,67,39,240
1749724991909.875,174625,1749724991891.062,73,44,231
1749724991929.75,174620,1749724991910.937,72,47,222
1749724991949.625,174722,1749724991930.844,95,39,211
1749724991969.5,174640,1749724991950.656,94,41,198
1749724991989.375,173987,1749724991970.562,77,31,207
1749724992009.25,173099,1749724991990.437,80,31,236
1749724992029.219,172308,1749724992010.344,75,23,224
1749724992049.0,171700,1749724992030.281,108,23,206
1749724992068.875,171446,1749724992050.031,159,19,178
1749724992088.75,171355,1749724992069.969,112,2,195
1749724992108.625,171492,1749724992089.844,112,7,223
1749724992128.5,171706,1749724992109.688,95,21,231
1749724992148.375,171917,1749724992129.594,130,47,223
1749724992168.219,172099,1749724992149.437,143,80,227
1749724992188.094,172160,1749724992169.25,96,83,275
1749724992207.938,172072,1749724992189.156,56,83,313
1749724992227.813,171969,1749724992209.0,48,67,336
1749724992247.656,171831,1749724992228.906,67,63,334
1749724992267.531,171791,1749724992248.719,79,59,329
1749724992287.406,171811,1749724992268.687,76,56,323
1749724992307.281,171598,1749724992288.469,112,46,351
1749724992327.094,171473,1749724992308.344,179,57,372
1749724992346.969,171625,1749724992328.188,220,63,358
1749724992366.906,172042,1749724992348.063,220,71,308
1749724992386.719,172708,1749724992367.937,207,64,271
1749724992406.563,173243,1749724992387.719,192,75,277
1749724992426.437,173840,1749724992407.625,195,79,326
1749724992446.312,174562,1749724992427.5,191,61,380
1749724992466.156,174734,1749724992447.344,145,44,377
1749724992486.156,174500,1749724992467.25,127,19,377
1749724992505.906,173947,1749724992487.094,118,16,386
1749724992525.781,173371,1749724992506.969,135,1,419
1749724992545.625,172939,1749724992526.875,150,3,447
1749724992565.5,172615,1749724992546.6868,145,11,423
1749724992585.375,172350,1749724992566.562,140,25,387
1749724992605.219,172068,1749724992586.438,167,29,359
1749724992625.094,171808,1749724992606.313,204,31,363
1749724992644.938,171647,1749724992626.156,215,31,377
1749724992664.844,171603,1749724992646.0,204,31,351
1749724992684.719,171562,1749724992665.906,159,23,326
1749724992704.531,171377,1749724992685.75,156,24,305
1749724992724.406,171032,1749724992705.625,169,28,310
1749724992744.281,170591,1749724992725.469,168,19,318
1749724992764.125,170030,1749724992745.344,160,4,328
1749724992783.969,169534,1749724992765.188,151,0,316
1749724992803.875,169137,1749724992785.094,134,0,302
1749724992823.719,168808,1749724992804.906,115,-9,307
1749724992843.594,168444,1749724992824.813,128,-8,308
1749724992863.437,168159,1749724992844.688,135,-5,315
1749724992883.281,167918,1749724992864.531,135,-5,302
1749724992903.156,167786,1749724992884.375,135,0,275
1749724992923.031,167736,1749724992904.219,120,0,263
1749724992942.844,167734,1749724992924.094,120,-13,249
1749724992962.75,167793,1749724992943.938,109,-17,252
1749724992982.625,167832,1749724992963.781,113,-17,243
1749724993002.5,167875,1749724992983.687,109,-9,227
1749724993022.312,167975,1749724993003.563,102,1,216
1749724993042.219,168117,1749724993023.406,94,-7,202
1749724993062.063,168321,1749724993043.281,89,5,192
1749724993081.937,168503,1749724993063.125,92,24,184
1749724993101.8118,168621,1749724993083.0,123,39,172
1749724993121.656,168659,1749724993102.875,119,39,182
1749724993141.531,168674,1749724993122.75,92,39,190
1749724993161.437,168714,1749724993142.594,67,31,190
1749724993181.25,168721,1749724993162.531,96,31,188
1749724993201.125,168637,1749724993182.313,115,31,180
1749724993221.031,168542,1749724993202.219,135,27,191
1749724993240.875,168510,1749724993222.062,127,40,207
1749724993260.719,168498,1749724993241.9382,131,15,224
1749724993280.594,168482,1749724993261.781,126,2,227
1749724993300.469,168431,1749724993281.656,105,3,222
1749724993320.312,168363,1749724993301.531,104,0,231
1749724993340.187,168301,1749724993321.438,108,-10,236
1749724993360.094,168261,1749724993341.281,95,-17,248
1749724993379.969,168160,1749724993361.156,107,-13,240
1749724993399.812,168006,1749724993381.031,108,3,259
1749724993419.687,167847,1749724993401.0,119,19,287
1749724993439.594,167749,1749724993420.781,126,23,291
1749724993459.469,167693,1749724993440.656,107,23,306
1749724993479.312,167677,1749724993460.531,105,27,310
1749724993499.187,167798,1749724993480.438,108,30,308
1749724993519.094,168074,1749724993500.25,107,31,310
1749724993538.969,168393,1749724993520.156,119,31,311
1749724993558.875,168798,1749724993540.031,115,19,323
1749724993578.687,169257,1749724993559.906,102,29,311
1749724993598.594,169579,1749724993579.75,115,31,291
1749724993618.469,169663,1749724993599.625,112,38,291
1749724993638.312,169569,1749724993619.531,126,30,300
1749724993658.219,169413,1749724993639.375,112,31,305
1749724993678.188,169180,1749724993659.281,123,35,282
1749724993697.938,169120,1749724993679.156,97,50,243
1749724993717.844,169151,1749724993699.031,83,39,227
1749724993737.687,169133,1749724993718.906,71,38,212
1749724993757.594,169015,1749724993738.781,108,42,240
1749724993777.438,169016,1749724993758.656,136,47,239
1749724993797.312,169142,1749724993778.5,136,47,215
1749724993817.219,169161,1749724993798.406,94,48,235
1749724993837.094,169027,1749724993818.281,99,56,242
1749724993856.9692,168947,1749724993838.156,131,47,227
1749724993876.844,168998,1749724993858.125,135,38,209
1749724993896.75,169071,1749724993877.906,99,23,199
1749724993916.625,169068,1749724993897.781,63,11,194
1749724993936.5,169065,1749724993917.687,79,1,211
1749724993956.375,169062,1749724993937.531,99,-9,203
1749724993976.25,169041,1749724993957.469,100,-9,219
1749724993996.125,169104,1749724993977.312,118,0,219
1749724994016.031,169289,1749724993997.219,156,15,240
1749724994035.906,169724,1749724994017.094,167,9,286
1749724994055.781,169713,1749724994036.938,136,39,294
1749724994075.656,169202,1749724994056.844,115,57,273
1749724994095.531,168767,1749724994076.75,152,31,271
1749724994115.406,168442,1749724994096.594,160,11,271
1749724994135.281,168225,1749724994116.469,139,15,270
1749724994155.156,167824,1749724994136.375,105,0,287
1749724994175.031,167298,1749724994156.25,96,3,326
1749724994194.875,166812,1749724994176.094,115,-7,344
1749724994214.781,166603,1749724994195.938,139,-17,337
1749724994234.625,166506,1749724994215.844,167,1,347
1749724994254.562,166474,1749724994235.687,177,31,334
1749724994274.406,166694,1749724994255.625,208,37,328
1749724994294.25,166845,1749724994275.469,243,47,375
1749724994314.125,166783,1749724994295.344,237,47,428
